D:\data\overige2021\rk\20200201rk_cocacase28x\B039734.D Mon Feb 01 20:51:26 2021
Start of data points
1.58977,11047
1.59238,9894
1.59498,10907
1.59760,10456
1.60020,9844
1.60280,10289
1.60542,11169
1.60802,10377
1.61063,11356
1.61323,10134
1.61583,11044
1.61845,10259
1.62105,11357
1.62367,8795
1.62627,10881
1.62887,10193
1.63148,10801
1.63408,9788
1.63670,11921
1.63930,8375
1.64190,10307
1.64452,12203
1.64712,10819
1.64973,11197
1.65233,12531
1.65493,10521
1.65755,8216
1.66015,9754
1.66277,10387
1.66537,9181
1.66797,10185
1.67058,9762
1.67318,9483
1.67580,8639
1.67840,9245
1.68102,9983
1.68362,9651
1.68622,10027
1.68883,9937
1.69143,7980
1.69405,9009
1.69665,8541
1.69925,9429
1.70187,7893
1.70447,9693
1.70708,7888
1.70968,9315
1.71228,9015
1.71490,10396
1.71750,9072
1.72012,9228
1.72272,9531
1.72532,9745
1.72793,8379
1.73053,7183
1.73315,8246
1.73575,9328
1.73835,8107
1.74097,8055
1.74357,8246
1.74618,8739
1.74878,7880
1.75138,9465
1.75400,8918
1.75660,8699
1.75922,7646
1.76182,7864
1.76443,8961
1.76703,7839
1.76963,7939
1.77225,8244
1.77485,7758
1.77747,7957
1.78007,7750
1.78267,7507
1.78528,7337
1.78788,7998
1.79050,8786
1.79310,6893
1.79570,7645
1.79832,7984
1.80092,7242
1.80353,6831
1.80613,7215
1.80873,7570
1.81135,7396
1.81395,6825
1.81657,7378
1.81917,5733
1.82177,7128
1.82438,6097
1.82698,7157
1.82960,6711
1.83220,7946
1.83480,7193
1.83742,6595
1.84002,5766
1.84263,7114
1.84523,7069
1.84785,6530
1.85045,6961
1.85305,7332
1.85567,6659
1.85827,6913
1.86088,5451
1.86348,6844
1.86608,6731
1.86870,7009
1.87130,8075
1.87392,6640
1.87652,6654
1.87912,6879
1.88173,7072
1.88433,7034
1.88695,6024
1.88955,7321
1.89215,6473
1.89477,7611
1.89737,8150
1.89998,6790
1.90258,6809
1.90518,6157
1.90780,8103
1.91040,7712
1.91302,7395
1.91562,6884
1.91822,7017
1.92083,5586
1.92343,6403
1.92605,5757
1.92865,6248
1.93127,5503
1.93387,5955
1.93647,6423
1.93908,6307
1.94168,5426
1.94430,6316
1.94690,5740
1.94950,5534
1.95212,6227
1.95472,6992
1.95733,6207
1.95993,6247
1.96253,5232
1.96515,6764
1.96775,5567
1.97037,5876
1.97297,5410
1.97557,6418
1.97818,6332
1.98078,5923
1.98340,6657
1.98600,6848
1.98860,5541
1.99122,6373
1.99382,5282
1.99643,6168
1.99903,6978
2.00163,5603
2.00425,6677
2.00685,6536
2.00947,7012
2.01207,5072
2.01468,6230
2.01728,6129
2.01988,4907
2.02250,5135
2.02510,5281
2.02772,5960
2.03032,5893
2.03292,6806
2.03553,7329
2.03813,8260
2.04075,12774
2.04335,14308
2.04595,20153
2.04857,21882
2.05117,22383
2.05378,20849
2.05638,22736
2.05898,21354
2.06160,19406
2.06420,18240
2.06682,15993
2.06942,14683
2.07202,15582
2.07463,15363
2.07723,12458
2.07985,12461
2.08245,10380
2.08505,12021
2.08767,11851
2.09027,11006
2.09288,11546
2.09548,10296
2.09810,9952
2.10070,9956
2.10330,9579
2.10592,10092
2.10852,10359
2.11113,9768
2.11373,8372
2.11633,9464
2.11895,7719
2.12155,8997
2.12417,8214
2.12677,9978
2.12937,8096
2.13198,9024
2.13458,10038
2.13720,8165
2.13980,8248
2.14240,7729
2.14502,7419
2.14762,7837
2.15023,8310
2.15283,8598
2.15543,7892
2.15805,7540
2.16065,8094
2.16327,6266
2.16587,7908
2.16847,7065
2.17108,7112
2.17368,7616
2.17630,6774
2.17890,8719
2.18152,6556
2.18412,7721
2.18672,7975
2.18933,7613
2.19193,6895
2.19455,7144
2.19715,6990
2.19975,6680
2.20237,5945
2.20497,6347
2.20758,4783
2.21018,7939
2.21278,7356
2.21540,6891
2.21800,7456
2.22062,7375
2.22322,6592
2.22582,5000
2.22843,5720
2.23103,6226
2.23365,7461
2.23625,6203
2.23885,6658
2.24147,5920
2.24407,6383
2.24668,6416
2.24928,6350
2.25188,6447
2.25450,5926
2.25710,7022
2.25972,7319
2.26232,5939
2.26493,5466
2.26753,6004
2.27013,6571
2.27275,5046
2.27535,6300
2.27797,5866
2.28057,5376
2.28317,6235
2.28578,5783
2.28838,6284
2.29100,6955
2.29360,7043
2.29620,5572
2.29882,6223
2.30142,5092
2.30403,5564
2.30663,6948
2.30923,5488
2.31185,6183
2.31445,5169
2.31707,6690
2.31967,6330
2.32227,4800
2.32488,5788
2.32748,5018
2.33010,5905
2.33270,7052
2.33530,5081
2.33792,6466
2.34052,5685
2.34313,5722
2.34573,5558
2.34835,6635
2.35095,4684
2.35355,5241
2.35617,5378
2.35877,5283
2.36138,5961
2.36398,5636
2.36658,6239
2.36920,5941
2.37180,6942
2.37442,5361
2.37702,5639
2.37962,5173
2.38223,5230
2.38483,6161
2.38745,6630
2.39005,5527
2.39265,4530
2.39527,5731
2.39787,5205
2.40048,4817
2.40308,6184
2.40568,6555
2.40830,6267
2.41090,6492
2.41352,5540
2.41612,5816
2.41873,5555
2.42133,5843
2.42393,5247
2.42655,5097
2.42915,6027
2.43177,6084
2.43437,5456
2.43697,5814
2.43958,5266
2.44218,6090
2.44480,5188
2.44740,5870
2.45000,5599
2.45262,6668
2.45522,5395
2.45783,6234
2.46043,6845
2.46303,7251
2.46565,8181
2.46825,10434
2.47087,9623
2.47347,11304
2.47607,9661
2.47868,9568
2.48128,9792
2.48390,10291
2.48650,9412
2.48910,8265
2.49172,8096
2.49432,7795
2.49693,6560
2.49953,7464
2.50215,6553
2.50475,7031
2.50735,6803
2.50997,8321
2.51257,5932
2.51518,7109
2.51778,5783
2.52038,6779
2.52300,7065
2.52560,5868
2.52822,5017
2.53082,6166
2.53342,6942
2.53603,5980
2.53863,5914
2.54125,5755
2.54385,7249
2.54645,5648
2.54907,5967
2.55167,6079
2.55428,5675
2.55688,5474
2.55948,6103
2.56210,4339
2.56470,4855
2.56732,5900
2.56992,5185
2.57252,6294
2.57513,6314
2.57773,5471
2.58035,5727
2.58295,5907
2.58557,5842
2.58817,6704
2.59077,8709
2.59338,8503
2.59598,7374
2.59860,7513
2.60120,6983
2.60380,8090
2.60642,5579
2.60902,6486
2.61163,5280
2.61423,5994
2.61683,6146
2.61945,6278
2.62205,6290
2.62467,5370
2.62727,6088
2.62987,6475
2.63248,6694
2.63508,6141
2.63770,7779
2.64030,7580
2.64290,7305
2.64552,6588
2.64812,7435
2.65073,6043
2.65333,4583
2.65593,7025
2.65855,5506
2.66115,6198
2.66377,6835
2.66637,5696
2.66898,5299
2.67158,6210
2.67418,5475
2.67680,6050
2.67940,5178
2.68202,5696
2.68462,5182
2.68722,5508
2.68983,6187
2.69243,6208
2.69505,4838
2.69765,4847
2.70025,5018
2.70287,5540
2.70547,6151
2.70808,5242
2.71068,4776
2.71328,5863
2.71590,6169
2.71850,5713
2.72112,4764
2.72372,4894
2.72632,5313
2.72893,5220
2.73153,5849
2.73415,5972
2.73675,5165
2.73935,5318
2.74197,4914
2.74457,5337
2.74718,4552
2.74978,4326
2.75240,6997
2.75500,5165
2.75760,5706
2.76022,5057
2.76282,6324
2.76543,5423
2.76803,5400
2.77063,4977
2.77325,5511
2.77585,5363
2.77847,5840
2.78107,5140
2.78367,5537
2.78628,4735
2.78888,6401
2.79150,6505
2.79410,5509
2.79670,3783
2.79932,5388
2.80192,5267
2.80453,5359
2.80713,5596
2.80973,5235
2.81235,4779
2.81495,5559
2.81757,4919
2.82017,4586
2.82277,5910
2.82538,5159
2.82798,5195
2.83060,5159
2.83320,5397
2.83582,5654
2.83842,5246
2.84102,5222
2.84363,6062
2.84623,4223
2.84885,4200
2.85145,5332
2.85405,5788
2.85667,5024
2.85927,4699
2.86188,5249
2.86448,5769
2.86708,4795
2.86970,5330
2.87230,5605
2.87492,4240
2.87752,5327
2.88012,5472
2.88273,6172
2.88533,6591
2.88795,4689
2.89055,5071
2.89315,5158
2.89577,4766
2.89837,5363
2.90098,5509
2.90358,5564
2.90618,5042
2.90880,5463
2.91140,5330
2.91402,5505
2.91662,5636
2.91923,4865
2.92183,4636
2.92443,5365
2.92705,4700
2.92965,4092
2.93227,5767
2.93487,5447
2.93747,6407
2.94008,5825
2.94268,4275
2.94530,5563
2.94790,5015
2.95050,5614
2.95312,5184
2.95572,4085
2.95833,4357
2.96093,4704
2.96353,5043
2.96615,4045
2.96875,5509
2.97137,5408
2.97397,6143
2.97657,6864
2.97918,6738
2.98178,7010
2.98440,6747
2.98700,4537
2.98960,6067
2.99222,5192
2.99482,4691
2.99743,4355
3.00003,4203
3.00265,4847
3.00525,4587
3.00785,5049
3.01047,6052
3.01307,4381
3.01568,4730
3.01828,5820
3.02088,5014
3.02350,3934
3.02610,3664
3.02872,4892
3.03132,4914
3.03392,4551
3.03653,5486
3.03913,4542
3.04175,5050
3.04435,5813
3.04695,5822
3.04957,6214
3.05217,5232
3.05478,5178
3.05738,5384
3.05998,4564
3.06260,3879
3.06520,3975
3.06782,5131
3.07042,4641
3.07302,4830
3.07563,5878
3.07823,4795
3.08085,5023
3.08345,5453
3.08607,4009
3.08867,3663
3.09127,5246
3.09388,5281
3.09648,4723
3.09910,4748
3.10170,5402
3.10430,5817
3.10692,4944
3.10952,5900
3.11213,4879
3.11473,4320
3.11733,5264
3.11995,5655
3.12255,5558
3.12517,4359
3.12777,4286
3.13037,5644
3.13298,5627
3.13558,4535
3.13820,6940
3.14080,8660
3.14340,10953
3.14602,11576
3.14862,10516
3.15123,11950
3.15383,11579
3.15643,13407
3.15905,13115
3.16165,13019
3.16427,11529
3.16687,13709
3.16948,11023
3.17208,11952
3.17468,10569
3.17730,10235
3.17990,11028
3.18252,12459
3.18512,11830
3.18772,11840
3.19033,10789
3.19293,12034
3.19555,9667
3.19815,9187
3.20075,10265
3.20337,11895
3.20597,10916
3.20858,9693
3.21118,8834
3.21378,11004
3.21640,8900
3.21900,9249
3.22162,10231
3.22422,8780
3.22682,9456
3.22943,10289
3.23203,10799
3.23465,10461
3.23725,7486
3.23985,10704
3.24247,7273
3.24507,8053
3.24768,8108
3.25028,7058
3.25290,8330
3.25550,8233
3.25810,7910
3.26072,6949
3.26332,7602
3.26593,7362
3.26853,9392
3.27113,8183
3.27375,8402
3.27635,9264
3.27897,8450
3.28157,8822
3.28417,7264
3.28678,6934
3.28938,7118
3.29200,8015
3.29460,7821
3.29720,8033
3.29982,6253
3.30242,8558
3.30503,6878
3.30763,6732
3.31023,7920
3.31285,7283
3.31545,8275
3.31807,6367
3.32067,7332
3.32327,7640
3.32588,7537
3.32848,6805
3.33110,8788
3.33370,7870
3.33632,7480
3.33892,7167
3.34152,6775
3.34413,7828
3.34673,7945
3.34935,6904
3.35195,8149
3.35455,6313
3.35717,6526
3.35977,8198
3.36238,6593
3.36498,6552
3.36758,6549
3.37020,7129
3.37280,7712
3.37542,5558
3.37802,7454
3.38062,5901
3.38323,5326
3.38583,7599
3.38845,5928
3.39105,6920
3.39365,6834
3.39627,6827
3.39887,7456
3.40148,7776
3.40408,8631
3.40668,7712
3.40930,8537
3.41190,8119
3.41452,8847
3.41712,9699
3.41973,9383
3.42233,8750
3.42493,7944
3.42755,7121
3.43015,7894
3.43277,6524
3.43537,7750
3.43797,7965
3.44058,7863
3.44318,8104
3.44580,8441
3.44840,8416
3.45100,8097
3.45362,7660
3.45622,8028
3.45883,6812
3.46143,6845
3.46403,7134
3.46665,7648
3.46925,7971
3.47187,8144
3.47447,7082
3.47707,6416
3.47968,7376
3.48228,7603
3.48490,7428
3.48750,7354
3.49010,6911
3.49272,8097
3.49532,8104
3.49793,7362
3.50053,6800
3.50315,5889
3.50575,8515
3.50835,8920
3.51097,10400
3.51357,15421
3.51618,36838
3.51878,66729
3.52138,105095
3.52400,132159
3.52660,131105
3.52922,106462
3.53182,75986
3.53442,51682
3.53703,36398
3.53963,28577
3.54225,24711
3.54485,21208
3.54745,19725
3.55007,17198
3.55267,17348
3.55528,14097
3.55788,14851
3.56048,12984
3.56310,14060
3.56570,13236
3.56832,12367
3.57092,13185
3.57352,13511
3.57613,13057
3.57873,13771
3.58135,12210
3.58395,12880
3.58657,12099
3.58917,12330
3.59177,13306
3.59438,14907
3.59698,16309
3.59960,14750
3.60220,14599
3.60480,13824
3.60742,14089
3.61002,14798
3.61263,14644
3.61523,14511
3.61783,12730
3.62045,12690
3.62305,12597
3.62567,12978
3.62827,11664
3.63087,14609
3.63348,15272
3.63608,14886
3.63870,18718
3.64130,19717
3.64390,18836
3.64652,18114
3.64912,17152
3.65173,14156
3.65433,15023
3.65693,14068
3.65955,13251
3.66215,13870
3.66477,13117
3.66737,13487
3.66998,12413
3.67258,12774
3.67518,12544
3.67780,12842
3.68040,12752
3.68302,12012
3.68562,11629
3.68822,12165
3.69083,11429
3.69343,10565
3.69605,11777
3.69865,11807
3.70125,12693
3.70387,12188
3.70647,11552
3.70908,13890
3.71168,11791
3.71428,10699
3.71690,10239
3.71950,12676
3.72212,11699
3.72472,13046
3.72732,10768
3.72993,11911
3.73253,11954
3.73515,11071
3.73775,10253
3.74035,11890
3.74297,11290
3.74557,12077
3.74818,11338
3.75078,11702
3.75340,11528
3.75600,12405
3.75860,10234
3.76122,11668
3.76382,9979
3.76643,9905
3.76903,11978
3.77163,9884
3.77425,10826
3.77685,10014
3.77947,9560
3.78207,12111
3.78467,10588
3.78728,11193
3.78988,13555
3.79250,13134
3.79510,13001
3.79770,14372
3.80032,11406
3.80292,13054
3.80553,12864
3.80813,11894
3.81073,11696
3.81335,10606
3.81595,11389
3.81857,11109
3.82117,12048
3.82377,10921
3.82638,9809
3.82898,12096
3.83160,11346
3.83420,9937
3.83682,10669
3.83942,9428
3.84202,9642
3.84463,10302
3.84723,10480
3.84985,12141
3.85245,12002
3.85505,10007
3.85767,12243
3.86027,10193
3.86288,9530
3.86548,9243
3.86808,9804
3.87070,10833
3.87330,10170
3.87592,10338
3.87852,10862
3.88112,9172
3.88373,10560
3.88633,10838
3.88895,10205
3.89155,11666
3.89415,10725
3.89677,11116
3.89937,10601
3.90198,11112
3.90458,10206
3.90718,9057
3.90980,11328
3.91240,12300
3.91502,11085
3.91762,12453
3.92023,11913
3.92283,14015
3.92543,12016
3.92805,12093
3.93065,19370
3.93327,26185
3.93587,33722
3.93847,34815
3.94108,32847
3.94368,29357
3.94630,22805
3.94890,20303
3.95150,14372
3.95412,17991
3.95672,13557
3.95933,14954
3.96193,12557
3.96453,12403
3.96715,13984
3.96975,14306
3.97237,11602
3.97497,13787
3.97757,12197
3.98018,12525
3.98278,12046
3.98540,12135
3.98800,11895
3.99060,12125
3.99322,10774
3.99582,9825
3.99843,10894
4.00103,11280
4.00365,10374
4.00625,10824
4.00885,13077
4.01147,10708
4.01407,11214
4.01668,12790
4.01928,11587
4.02188,11650
4.02450,11604
4.02710,9687
4.02972,12268
4.03232,10761
4.03492,11343
4.03753,9490
4.04013,12268
4.04275,11358
4.04535,10485
4.04795,10022
4.05057,10095
4.05317,11892
4.05578,12380
4.05838,11189
4.06098,11219
4.06360,10391
4.06620,11687
4.06882,9448
4.07142,10215
4.07402,12003
4.07663,10558
4.07923,11580
4.08185,12185
4.08445,10910
4.08707,11419
4.08967,10835
4.09227,10534
4.09488,11374
4.09748,11502
4.10010,9921
4.10270,10593
4.10530,10091
4.10792,10036
4.11052,10019
4.11313,9859
4.11573,9948
4.11833,10064
4.12095,11682
4.12355,10682
4.12617,9313
4.12877,11878
4.13137,10946
4.13398,10327
4.13658,10899
4.13920,11655
4.14180,10478
4.14440,9802
4.14702,10984
4.14962,11107
4.15223,10003
4.15483,10516
4.15743,9924
4.16005,10891
4.16265,10691
4.16527,11925
4.16787,12328
4.17048,11653
4.17308,11856
4.17568,10633
4.17830,11574
4.18090,12704
4.18352,17153
4.18612,23321
4.18872,31898
4.19133,31210
4.19393,31059
4.19655,24080
4.19915,20101
4.20175,15397
4.20437,15302
4.20697,13112
4.20958,14277
4.21218,12044
4.21478,11317
4.21740,12435
4.22000,11339
4.22262,12121
4.22522,11491
4.22782,10169
4.23043,10483
4.23303,11168
4.23565,10300
4.23825,10338
4.24085,9863
4.24347,10073
4.24607,10575
4.24868,10689
4.25128,9324
4.25390,11620
4.25650,11156
4.25910,10435
4.26172,10484
4.26432,10213
4.26693,10160
4.26953,9845
4.27213,11194
4.27475,8823
4.27735,10622
4.27997,11700
4.28257,10880
4.28517,11031
4.28778,8624
4.29038,10597
4.29300,9939
4.29560,10238
4.29820,9591
4.30082,10800
4.30342,9729
4.30603,9724
4.30863,9371
4.31123,8261
4.31385,10259
4.31645,9677
4.31907,10322
4.32167,9578
4.32427,9893
4.32688,10941
4.32948,9457
4.33210,8962
4.33470,10083
4.33732,10935
4.33992,10510
4.34252,10684
4.34513,10450
4.34773,9959
4.35035,9385
4.35295,8847
4.35555,9299
4.35817,10620
4.36077,9322
4.36338,9265
4.36598,9420
4.36858,10691
4.37120,8805
4.37380,9279
4.37642,11074
4.37902,9526
4.38162,10885
4.38423,10005
4.38683,9502
4.38945,10110
4.39205,9726
4.39465,9730
4.39727,9462
4.39987,10225
4.40248,10872
4.40508,11081
4.40768,10595
4.41030,10384
4.41290,11226
4.41552,9914
4.41812,11254
4.42073,9455
4.42333,11056
4.42593,10839
4.42855,8992
4.43115,10609
4.43377,9482
4.43637,8860
4.43897,10878
4.44158,10762
4.44418,8556
4.44680,9992
4.44940,8599
4.45200,9392
4.45462,9843
4.45722,9842
4.45983,10180
4.46243,10075
4.46503,9422
4.46765,9556
4.47025,9419
4.47287,10301
4.47547,8561
4.47807,10548
4.48068,9295
4.48328,9853
4.48590,9229
4.48850,9025
4.49110,10080
4.49372,9275
4.49632,9316
4.49893,9992
4.50153,8865
4.50415,11376
4.50675,9607
4.50935,7627
4.51197,10254
4.51457,9305
4.51718,11172
4.51978,8857
4.52238,7573
4.52500,11088
4.52760,9677
4.53022,9870
4.53282,9923
4.53542,10676
4.53803,8493
4.54063,10993
4.54325,10628
4.54585,10063
4.54845,9576
4.55107,10026
4.55367,10170
4.55628,9735
4.55888,10375
4.56148,9576
4.56410,9890
4.56670,8922
4.56932,9059
4.57192,9511
4.57452,8532
4.57713,7811
4.57973,9217
4.58235,10584
4.58495,9014
4.58757,9283
4.59017,9688
4.59277,8744
4.59538,8985
4.59798,10146
4.60060,9572
4.60320,9497
4.60580,10433
4.60842,8860
4.61102,9186
4.61363,7762
4.61623,9870
4.61883,10151
4.62145,11085
4.62405,9618
4.62667,8861
4.62927,10640
4.63187,10482
4.63448,7992
4.63708,10080
4.63970,10408
4.64230,9153
4.64490,9960
4.64752,9435
4.65012,9634
4.65273,8593
4.65533,10563
4.65793,9303
4.66055,10078
4.66315,9317
4.66577,9835
4.66837,8662
4.67098,10516
4.67358,9650
4.67618,10275
4.67880,9047
4.68140,9583
4.68402,8511
4.68662,8465
4.68922,9209
4.69183,9319
4.69443,10616
4.69705,8078
4.69965,8997
4.70225,9801
4.70487,8944
4.70747,10532
4.71008,10326
4.71268,8743
4.71528,9683
4.71790,10121
4.72050,11657
4.72312,9154
4.72572,10301
4.72832,10865
4.73093,10195
4.73353,11575
4.73615,9620
4.73875,9688
4.74135,10355
4.74397,8591
4.74657,10202
4.74918,10180
4.75178,8309
4.75440,9720
4.75700,11110
4.75960,9564
4.76222,8485
4.76482,10611
4.76743,9778
4.77003,10251
4.77263,10364
4.77525,9605
4.77785,9952
4.78047,10285
4.78307,10437
4.78567,9325
4.78828,10929
4.79088,9014
4.79350,9052
4.79610,8815
4.79870,9182
4.80132,10315
4.80392,9708
4.80653,11065
4.80913,9410
4.81173,8443
4.81435,9620
4.81695,9205
4.81957,10252
4.82217,9775
4.82477,10415
4.82738,8496
4.82998,9210
4.83260,10395
4.83520,8284
4.83782,10325
4.84042,10861
4.84302,9192
4.84563,9527
4.84823,10870
4.85085,8761
4.85345,9653
4.85605,10758
4.85867,8951
4.86127,10090
4.86388,9354
4.86648,10328
4.86908,9185
4.87170,10166
4.87430,9260
4.87692,9718
4.87952,9643
4.88212,9872
4.88473,9041
4.88733,9580
4.88995,10472
4.89255,10659
4.89515,8586
4.89777,9027
4.90037,10179
4.90298,9369
4.90558,10114
4.90818,10016
4.91080,10095
4.91340,10663
4.91602,8434
4.91862,10841
4.92123,9708
4.92383,10293
4.92643,9449
4.92905,8541
4.93165,9424
4.93427,9337
4.93687,8859
4.93947,8984
4.94208,10520
4.94468,9123
4.94730,9504
4.94990,8401
4.95250,8964
4.95512,7400
4.95772,9414
4.96033,8664
4.96293,8996
4.96553,9120
4.96815,10353
4.97075,9979
4.97337,9500
4.97597,10005
4.97857,9913
4.98118,9347
4.98378,10670
4.98640,9969
4.98900,10368
4.99160,9102
4.99422,9986
4.99682,9589
4.99943,8210
5.00203,9909
5.00465,10452
5.00725,10142
5.00985,9886
5.01247,10030
5.01507,9205
5.01768,10938
5.02028,10289
5.02288,9128
5.02550,9450
5.02810,9951
5.03072,9018
5.03332,9878
5.03592,9411
5.03853,9705
5.04113,9187
5.04375,9069
5.04635,9206
5.04895,9119
5.05157,9864
5.05417,7752
5.05678,9619
5.05938,11391
5.06198,10998
5.06460,10419
5.06720,9778
5.06982,8952
5.07242,11233
5.07502,8836
5.07763,8297
5.08023,10438
5.08285,9191
5.08545,9415
5.08807,9542
5.09067,10816
5.09327,10001
5.09588,11868
5.09848,11129
5.10110,11751
5.10370,9637
5.10630,8946
5.10892,12921
5.11152,10084
5.11413,11136
5.11673,10468
5.11933,9241
5.12195,9778
5.12455,9683
5.12717,9300
5.12977,10873
5.13237,10017
5.13498,9954
5.13758,11485
5.14020,9804
5.14280,9494
5.14540,8587
5.14802,9666
5.15062,8377
5.15323,9302
5.15583,10776
5.15843,10923
5.16105,11380
5.16365,11122
5.16627,10935
5.16887,10566
5.17148,10475
5.17408,10054
5.17668,9890
5.17930,10239
5.18190,10062
5.18452,9640
5.18712,11000
5.18972,9738
5.19233,10046
5.19493,9103
5.19755,10423
5.20015,8436
5.20275,9699
5.20537,10184
5.20797,9960
5.21058,9245
5.21318,9839
5.21578,11285
5.21840,10270
5.22100,9103
5.22362,7926
5.22622,10083
5.22882,9404
5.23143,11303
5.23403,9559
5.23665,10298
5.23925,9074
5.24185,9344
5.24447,9485
5.24707,8806
5.24968,9339
5.25228,9649
5.25490,10342
5.25750,8620
5.26010,9560
5.26272,9797
5.26532,8972
5.26793,9927
5.27053,8443
5.27313,9952
5.27575,11141
5.27835,9478
5.28097,9533
5.28357,10687
5.28617,8738
5.28878,10168
5.29138,8105
5.29400,11276
5.29660,10042
5.29920,10772
5.30182,10095
5.30442,9206
5.30703,10767
5.30963,7970
5.31223,11016
5.31485,9050
5.31745,11259
5.32007,9796
5.32267,10780
5.32527,10170
5.32788,10225
5.33048,11855
5.33310,10440
5.33570,11015
5.33832,11027
5.34092,7951
5.34352,9696
5.34613,9503
5.34873,10228
5.35135,11110
5.35395,10164
5.35655,9163
5.35917,9738
5.36177,9262
5.36438,10874
5.36698,10460
5.36958,10015
5.37220,9826
5.37480,10223
5.37742,10903
5.38002,10585
5.38262,10223
5.38523,10195
5.38783,9927
5.39045,10395
5.39305,10398
5.39565,10366
5.39827,10969
5.40087,9456
5.40348,9177
5.40608,9931
5.40868,10753
5.41130,9135
5.41390,9163
5.41652,11116
5.41912,9795
5.42173,9897
5.42433,8809
5.42693,10039
5.42955,10856
5.43215,9361
5.43477,9798
5.43737,10752
5.43997,9084
5.44258,9419
5.44518,10675
5.44780,10134
5.45040,11303
5.45300,13063
5.45562,16012
5.45822,14553
5.46083,15271
5.46343,13364
5.46603,10874
5.46865,11920
5.47125,12457
5.47387,10114
5.47647,11522
5.47907,11182
5.48168,10876
5.48428,11784
5.48690,10417
5.48950,8975
5.49210,9246
5.49472,10698
5.49732,10318
5.49993,12043
5.50253,8775
5.50515,11574
5.50775,10974
5.51035,9262
5.51297,10952
5.51557,9588
5.51818,10304
5.52078,10419
5.52338,10160
5.52600,10496
5.52860,10943
5.53122,10578
5.53382,11282
5.53642,11116
5.53903,10366
5.54163,9157
5.54425,11434
5.54685,9652
5.54945,9991
5.55207,8999
5.55467,9753
5.55728,10518
5.55988,10717
5.56248,10350
5.56510,9734
5.56770,10179
5.57032,11766
5.57292,11332
5.57552,11714
5.57813,10123
5.58073,8534
5.58335,10695
5.58595,9988
5.58857,11609
5.59117,8590
5.59377,10491
5.59638,9506
5.59898,9854
5.60160,10706
5.60420,9176
5.60680,9804
5.60942,10569
5.61202,10970
5.61463,10098
5.61723,10411
5.61983,9109
5.62245,10257
5.62505,11429
5.62767,11518
5.63027,10830
5.63287,11012
5.63548,10598
5.63808,10618
5.64070,10232
5.64330,10094
5.64590,10737
5.64852,9852
5.65112,9148
5.65373,9252
5.65633,10762
5.65893,10743
5.66155,10110
5.66415,10128
5.66677,10117
5.66937,9073
5.67198,10356
5.67458,9269
5.67718,10202
5.67980,10288
5.68240,10761
5.68502,10071
5.68762,10712
5.69022,11157
5.69283,10172
5.69543,10920
5.69805,11496
5.70065,11714
5.70325,13239
5.70587,13092
5.70847,12705
5.71108,11732
5.71368,12721
5.71628,11237
5.71890,10074
5.72150,11884
5.72412,11191
5.72672,11334
5.72932,11137
5.73193,10447
5.73453,9206
5.73715,9031
5.73975,9338
5.74237,9471
5.74497,10866
5.74757,10505
5.75018,11589
5.75278,10160
5.75540,9995
5.75800,10239
5.76060,11237
5.76322,10678
5.76582,9629
5.76843,10126
5.77103,10415
5.77363,12188
5.77625,11765
5.77885,10845
5.78147,10046
5.78407,10873
5.78667,9551
5.78928,11434
5.79188,10673
5.79450,10529
5.79710,9910
5.79970,9878
5.80232,10890
5.80492,11896
5.80753,11395
5.81013,13317
5.81273,19310
5.81535,34302
5.81795,57043
5.82057,79740
5.82317,91970
5.82578,79615
5.82838,59214
5.83098,40024
5.83360,27195
5.83620,24002
5.83882,25048
5.84142,31485
5.84402,35487
5.84663,36388
5.84923,30645
5.85185,20991
5.85445,17646
5.85705,15903
5.85967,13781
5.86227,13461
5.86488,12319
5.86748,10743
5.87008,11882
5.87270,11729
5.87530,13063
5.87792,13100
5.88052,12567
5.88312,11502
5.88573,10576
5.88833,11104
5.89095,12124
5.89355,11400
5.89615,11893
5.89877,11190
5.90137,12304
5.90398,10963
5.90658,10784
5.90920,12192
5.91180,12504
5.91440,11061
5.91702,12414
5.91962,11827
5.92223,10738
5.92483,12319
5.92743,12289
5.93005,14623
5.93265,14085
5.93527,14034
5.93787,14154
5.94047,15713
5.94308,15267
5.94568,13947
5.94830,13836
5.95090,12236
5.95350,12164
5.95612,13223
5.95872,13712
5.96133,13474
5.96393,12934
5.96653,13310
5.96915,12487
5.97175,11940
5.97437,13074
5.97697,12403
5.97957,13103
5.98218,11438
5.98478,11867
5.98740,10751
5.99000,12754
5.99262,13216
5.99522,14277
5.99782,14061
6.00043,12115
6.00303,14508
6.00565,12923
6.00825,11926
6.01085,12183
6.01347,13554
6.01607,12436
6.01868,12901
6.02128,10935
6.02388,13484
6.02650,12815
6.02910,11516
6.03172,11444
6.03432,11982
6.03692,11850
6.03953,12034
6.04213,11821
6.04475,14148
6.04735,14708
6.04995,16115
6.05257,18381
6.05517,19518
6.05778,19225
6.06038,17757
6.06298,16302
6.06560,16042
6.06820,17736
6.07082,18179
6.07342,15396
6.07603,16225
6.07863,12793
6.08123,12583
6.08385,13024
6.08645,12739
6.08907,13119
6.09167,12673
6.09427,12330
6.09688,13687
6.09948,12957
6.10210,12581
6.10470,13750
6.10730,14462
6.10992,13446
6.11252,15045
6.11513,12945
6.11773,14196
6.12033,11941
6.12295,13312
6.12555,13708
6.12817,13018
6.13077,12260
6.13337,13173
6.13598,14922
6.13858,14829
6.14120,12557
6.14380,11794
6.14640,14042
6.14902,12114
6.15162,12675
6.15423,12538
6.15683,12441
6.15945,12706
6.16205,12120
6.16465,13356
6.16727,13463
6.16987,11862
6.17248,12270
6.17508,16084
6.17768,14170
6.18030,14282
6.18290,12500
6.18552,13020
6.18812,12703
6.19072,12883
6.19333,13420
6.19593,12144
6.19855,12484
6.20115,11592
6.20375,12511
6.20637,12209
6.20897,10938
6.21158,11456
6.21418,12715
6.21678,13090
6.21940,12219
6.22200,11502
6.22462,11511
6.22722,12437
6.22982,12313
6.23243,11891
6.23503,11998
6.23765,11691
6.24025,12035
6.24287,13353
6.24547,13130
6.24807,12046
6.25068,11105
6.25328,13501
6.25590,12127
6.25850,11439
6.26110,13200
6.26372,10705
6.26632,11479
6.26893,12257
6.27153,11781
6.27413,12286
6.27675,11313
6.27935,12433
6.28197,12786
6.28457,12527
6.28717,11570
6.28978,12786
6.29238,11539
6.29500,13114
6.29760,11961
6.30020,12597
6.30282,12919
6.30542,12890
6.30803,12217
6.31063,11494
6.31323,12452
6.31585,12089
6.31845,11685
6.32107,10984
6.32367,11921
6.32628,12008
6.32888,11744
6.33148,12563
6.33410,11404
6.33670,13001
6.33932,12808
6.34192,12178
6.34452,13044
6.34713,13284
6.34973,12714
6.35235,11782
6.35495,12998
6.35755,12574
6.36017,11886
6.36277,12775
6.36538,10916
6.36798,12110
6.37058,11911
6.37320,12175
6.37580,11398
6.37842,12779
6.38102,11003
6.38362,10158
6.38623,12600
6.38883,13901
6.39145,12579
6.39405,11483
6.39665,12640
6.39927,13986
6.40187,12204
6.40448,12270
6.40708,11842
6.40970,15217
6.41230,13374
6.41490,11575
6.41752,12818
6.42012,13875
6.42273,12080
6.42533,11561
6.42793,11820
6.43055,11781
6.43315,12567
6.43577,12058
6.43837,12521
6.44097,11922
6.44358,10145
6.44618,12277
6.44880,11919
6.45140,11523
6.45400,11600
6.45662,13507
6.45922,12326
6.46183,11677
6.46443,11770
6.46703,12589
6.46965,13688
6.47225,13031
6.47487,14337
6.47747,12080
6.48007,13152
6.48268,12559
6.48528,14299
6.48790,14288
6.49050,16054
6.49312,13724
6.49572,14507
6.49832,16395
6.50093,19993
6.50353,21891
6.50615,24589
6.50875,22584
6.51135,22627
6.51397,19910
6.51657,15674
6.51918,15259
6.52178,15185
6.52438,16899
6.52700,13703
6.52960,14143
6.53222,15915
6.53482,14610
6.53742,13810
6.54003,13246
6.54263,14631
6.54525,13270
6.54785,12564
6.55045,12944
6.55307,13471
6.55567,14196
6.55828,13921
6.56088,13938
6.56348,15398
6.56610,13465
6.56870,12191
6.57132,14357
6.57392,13874
6.57653,12602
6.57913,13807
6.58173,14473
6.58435,13918
6.58695,20621
6.58957,44404
6.59217,156833
6.59477,615443
6.59738,2058100
6.59998,5228192
6.60260,1.011551E+07
6.60520,1.625423E+07
6.60780,2.175741E+07
6.61042,2.756396E+07
6.61302,3.256229E+07
6.61563,3.582913E+07
6.61823,3.649011E+07
6.62083,2.935974E+07
6.62345,1.315977E+07
6.62605,3178831
6.62867,839625
6.63127,386253
6.63387,245088
6.63648,190573
6.63908,156248
6.64170,130183
6.64430,115889
6.64690,105098
6.64952,91325
6.65212,84481
6.65473,75970
6.65733,68695
6.65995,68251
6.66255,60610
6.66515,60016
6.66777,57418
6.67037,51045
6.67298,50622
6.67558,49406
6.67818,47247
6.68080,47510
6.68340,45423
6.68602,40930
6.68862,39239
6.69122,37248
6.69383,39038
6.69643,39475
6.69905,35544
6.70165,35745
6.70425,33329
6.70687,36485
6.70947,32075
6.71208,31925
6.71468,29084
6.71728,31019
6.71990,31662
6.72250,29076
6.72512,26948
6.72772,27031
6.73032,29770
6.73293,28272
6.73553,30282
6.73815,28086
6.74075,30824
6.74337,34343
6.74597,32731
6.74857,28288
6.75118,29215
6.75378,26682
6.75640,25642
6.75900,27057
6.76160,25925
6.76422,25994
6.76682,25507
6.76943,23208
6.77203,24945
6.77463,24212
6.77725,24655
6.77985,22330
6.78247,21727
6.78507,22833
6.78767,21576
6.79028,21871
6.79288,23055
6.79550,21912
6.79810,21251
6.80070,21592
6.80332,21157
6.80592,21688
6.80853,18932
6.81113,21648
6.81373,20832
6.81635,20144
6.81895,20767
6.82157,19424
6.82417,21474
6.82678,20723
6.82938,19411
6.83198,21586
6.83460,18728
6.83720,18693
6.83982,19434
6.84242,20406
6.84502,19661
6.84763,18885
6.85023,20445
6.85285,19974
6.85545,23480
6.85805,25702
6.86067,37839
6.86327,44977
6.86588,53686
6.86848,61528
6.87108,55685
6.87370,48753
6.87630,46771
6.87892,40795
6.88152,34900
6.88412,32544
6.88673,32077
6.88933,29284
6.89195,28756
6.89455,27421
6.89715,28013
6.89977,26106
6.90237,27019
6.90498,24552
6.90758,22118
6.91020,25819
6.91280,24054
6.91540,23087
6.91802,25309
6.92062,23689
6.92323,22012
6.92583,20383
6.92843,23317
6.93105,24087
6.93365,25196
6.93627,28577
6.93887,31224
6.94147,28426
6.94408,26613
6.94668,24059
6.94930,22803
6.95190,23743
6.95450,23098
6.95712,24761
6.95972,23945
6.96233,21341
6.96493,23491
6.96753,18405
6.97015,21565
6.97275,19823
6.97537,22414
6.97797,20588
6.98057,19736
6.98318,19280
6.98578,16188
6.98840,19390
6.99100,19549
6.99362,19902
6.99622,21637
6.99882,19143
7.00143,18868
7.00403,19721
7.00665,20921
7.00925,22839
7.01185,19642
7.01447,20129
7.01707,19373
7.01968,20561
7.02228,18928
7.02488,18485
7.02750,19527
7.03010,19566
7.03272,18835
7.03532,17087
7.03792,18338
7.04053,19184
7.04313,17465
7.04575,20506
7.04835,22027
7.05095,23439
7.05357,24292
7.05617,23859
7.05878,23709
7.06138,20134
7.06398,21846
7.06660,19479
7.06920,19672
7.07182,19004
7.07442,18324
7.07703,20893
7.07963,17853
7.08223,19458
7.08485,19271
7.08745,16337
7.09007,18628
7.09267,19898
7.09527,19756
7.09788,18807
7.10048,18946
7.10310,17136
7.10570,19219
7.10830,19627
7.11092,19807
7.11352,18492
7.11613,18801
7.11873,19279
7.12133,19772
7.12395,18923
7.12655,20769
7.12917,17069
7.13177,17750
7.13437,18915
7.13698,17542
7.13958,14489
7.14220,18347
7.14480,18717
7.14740,17105
7.15002,19919
7.15262,17470
7.15523,17148
7.15783,19253
7.16045,18727
7.16305,18833
7.16565,17754
7.16827,16825
7.17087,18628
7.17348,19016
7.17608,17838
7.17868,18090
7.18130,15544
7.18390,18776
7.18652,19262
7.18912,16099
7.19172,19029
7.19433,19841
7.19693,16508
7.19955,16758
7.20215,18559
7.20475,20556
7.20737,20574
7.20997,22215
7.21258,23678
7.21518,29391
7.21778,27363
7.22040,24720
7.22300,20942
7.22562,22714
7.22822,21113
7.23082,21954
7.23343,19150
7.23603,20603
7.23865,22568
7.24125,22434
7.24387,22457
7.24647,24043
7.24907,21214
7.25168,18443
7.25428,19157
7.25690,20151
7.25950,17090
7.26210,19306
7.26472,18933
7.26732,19470
7.26993,18388
7.27253,20226
7.27513,19033
7.27775,19422
7.28035,18362
7.28297,19941
7.28557,18644
7.28817,20015
7.29078,18154
7.29338,19056
7.29600,18445
7.29860,17120
7.30120,17709
7.30382,18281
7.30642,19588
7.30903,18378
7.31163,17415
7.31423,18827
7.31685,19447
7.31945,16966
7.32207,16621
7.32467,20077
7.32728,18371
7.32988,19978
7.33248,20509
7.33510,19087
7.33770,15965
7.34032,19338
7.34292,18371
7.34552,19417
7.34813,19759
7.35073,19166
7.35335,17444
7.35595,17651
7.35855,17465
7.36117,19915
7.36377,19084
7.36638,20397
7.36898,18720
7.37158,19302
7.37420,18821
7.37680,19995
7.37942,18667
7.38202,19570
7.38462,18056
7.38723,19967
7.38983,18572
7.39245,19814
7.39505,18084
7.39765,18695
7.40027,19170
7.40287,20033
7.40548,18215
7.40808,20480
7.41070,18906
7.41330,19261
7.41590,20621
7.41852,20690
7.42112,18440
7.42373,20618
7.42633,18882
7.42893,17801
7.43155,17857
7.43415,19381
7.43677,20123
7.43937,17508
7.44197,19559
7.44458,20895
7.44718,18951
7.44980,20421
7.45240,16463
7.45500,18365
7.45762,19808
7.46022,19133
7.46283,18613
7.46543,19551
7.46803,17638
7.47065,19310
7.47325,19939
7.47587,19569
7.47847,20425
7.48107,19486
7.48368,18877
7.48628,22502
7.48890,19543
7.49150,19646
7.49412,20581
7.49672,22537
7.49932,20847
7.50193,22766
7.50453,20790
7.50715,22505
7.50975,19781
7.51235,22194
7.51497,22159
7.51757,20407
7.52018,25024
7.52278,31083
7.52538,34959
7.52800,39682
7.53060,33158
7.53322,32315
7.53582,29672
7.53842,25070
7.54103,21980
7.54363,21613
7.54625,22871
7.54885,21076
7.55145,20995
7.55407,21614
7.55667,20353
7.55928,22615
7.56188,20641
7.56448,21306
7.56710,20786
7.56970,19773
7.57232,20992
7.57492,23109
7.57753,24254
7.58013,26740
7.58273,26350
7.58535,27040
7.58795,27519
7.59057,24498
7.59317,22431
7.59577,23801
7.59838,23557
7.60098,20931
7.60360,20801
7.60620,22479
7.60880,21485
7.61142,21804
7.61402,21249
7.61663,19213
7.61923,21218
7.62183,23275
7.62445,25817
7.62705,24800
7.62967,22428
7.63227,21573
7.63487,20992
7.63748,21759
7.64008,21482
7.64270,22861
7.64530,21860
7.64790,21333
7.65052,20834
7.65312,20726
7.65573,19614
7.65833,20987
7.66095,20561
7.66355,24054
7.66615,25800
7.66877,31426
7.67137,38016
7.67398,58004
7.67658,68896
7.67918,77850
7.68180,71410
7.68440,64902
7.68702,46322
7.68962,36998
7.69222,33303
7.69483,29079
7.69743,32922
7.70005,27637
7.70265,28654
7.70525,26706
7.70787,25386
7.71047,25137
7.71308,28702
7.71568,27309
7.71828,25975
7.72090,25638
7.72350,23552
7.72612,24785
7.72872,23268
7.73132,25614
7.73393,26370
7.73653,25849
7.73915,25142
7.74175,24095
7.74437,25614
7.74697,25365
7.74957,24979
7.75218,26125
7.75478,25619
7.75740,24117
7.76000,26778
7.76260,23165
7.76522,22282
7.76782,27114
7.77043,23123
7.77303,23973
7.77563,25302
7.77825,26735
7.78085,24475
7.78347,27466
7.78607,25029
7.78867,23918
7.79128,23777
7.79388,24565
7.79650,26083
7.79910,23812
7.80170,25140
7.80432,24625
7.80692,24790
7.80953,24818
7.81213,26289
7.81473,25069
7.81735,23896
7.81995,24882
7.82257,27235
7.82517,29692
7.82778,32634
7.83038,30818
7.83298,31608
7.83560,29596
7.83820,28620
7.84082,28803
7.84342,26712
7.84602,24584
7.84863,25944
7.85123,25501
7.85385,25630
7.85645,26521
7.85905,24959
7.86167,27537
7.86427,25542
7.86688,28334
7.86948,26414
7.87208,26852
7.87470,24063
7.87730,26028
7.87992,26731
7.88252,25803
7.88512,26917
7.88773,24682
7.89033,24914
7.89295,24945
7.89555,28467
7.89815,25557
7.90077,26130
7.90337,27667
7.90598,27995
7.90858,29947
7.91120,30356
7.91380,29354
7.91640,28683
7.91902,27953
7.92162,25995
7.92423,25855
7.92683,25883
7.92943,27082
7.93205,25537
7.93465,26794
7.93727,26345
7.93987,27482
7.94247,26234
7.94508,29163
7.94768,26463
7.95030,28093
7.95290,26068
7.95550,25565
7.95812,27912
7.96072,27111
7.96333,26845
7.96593,28895
7.96853,28158
7.97115,28340
7.97375,27999
7.97637,28052
7.97897,27415
7.98157,26651
7.98418,29979
7.98678,27274
7.98940,27299
7.99200,28309
7.99462,29066
7.99722,28572
7.99982,27437
8.00243,26448
8.00503,28393
8.00765,27750
8.01025,28311
8.01285,25976
8.01547,29712
8.01807,28519
8.02068,29165
8.02328,29288
8.02588,28676
8.02850,29195
8.03110,28472
8.03372,28169
8.03632,27023
8.03892,27262
8.04153,29618
8.04413,28179
8.04675,28062
8.04935,27939
8.05195,31235
8.05457,35826
8.05717,51656
8.05978,147798
8.06238,458472
8.06498,1553661
8.06760,4329712
8.07020,9168457
8.07282,1.415362E+07
8.07542,1.821492E+07
8.07803,1.995408E+07
8.08063,1.752367E+07
8.08323,1.125589E+07
8.08585,5722971
8.08845,2989722
8.09107,1799604
8.09367,1239155
8.09627,936719
8.09888,745849
8.10148,622629
8.10410,515556
8.10670,437175
8.10930,372259
8.11192,347151
8.11452,311542
8.11713,273312
8.11973,239538
8.12233,228712
8.12495,208120
8.12755,186063
8.13017,180374
8.13277,160408
8.13537,148031
8.13798,141277
8.14058,133829
8.14320,122839
8.14580,126279
8.14840,119836
8.15102,106524
8.15362,102547
8.15623,96424
8.15883,92609
8.16145,90859
8.16405,90523
8.16665,86663
8.16927,85208
8.17187,88285
8.17448,90787
8.17708,96154
8.17968,103716
8.18230,100928
8.18490,101181
8.18752,84617
8.19012,82448
8.19272,79470
8.19533,67355
8.19793,69844
8.20055,63753
8.20315,62280
8.20575,63051
8.20837,61390
8.21097,60441
8.21358,62885
8.21618,63827
8.21878,58654
8.22140,56969
8.22400,54454
8.22662,53043
8.22922,55378
8.23182,53458
8.23443,50905
8.23703,50134
8.23965,48969
8.24225,50551
8.24487,50965
8.24747,49234
8.25007,47435
8.25268,47561
8.25528,47550
8.25790,50774
8.26050,47692
8.26310,47245
8.26572,44479
8.26832,44923
8.27093,49721
8.27353,43981
8.27613,46509
8.27875,44086
8.28135,44996
8.28397,44255
8.28657,44173
8.28917,48507
8.29178,43852
8.29438,45463
8.29700,45302
8.29960,45777
8.30220,46344
8.30482,43659
8.30742,45582
8.31003,45659
8.31263,44949
8.31523,48811
8.31785,43794
8.32045,41553
8.32307,43166
8.32567,43806
8.32828,42858
8.33088,44824
8.33348,42924
8.33610,42302
8.33870,44159
8.34132,43316
8.34392,46099
8.34652,42130
8.34913,44715
8.35173,44430
8.35435,45687
8.35695,44118
8.35955,45948
8.36217,44867
8.36477,43824
8.36738,45939
8.36998,46342
8.37258,40924
8.37520,44295
8.37780,44239
8.38042,46725
8.38302,44058
8.38562,44284
8.38823,46102
8.39083,46220
8.39345,47579
8.39605,45874
8.39865,45915
8.40127,42909
8.40387,42774
8.40648,44473
8.40908,47413
8.41170,45217
8.41430,46124
8.41690,46311
8.41952,45197
8.42212,45519
8.42473,47730
8.42733,48571
8.42993,46921
8.43255,46170
8.43515,45598
8.43777,46498
8.44037,46897
8.44297,46446
8.44558,46102
8.44818,46393
8.45080,46616
8.45340,46904
8.45600,44803
8.45862,45097
8.46122,50202
8.46383,50842
8.46643,48239
8.46903,50817
8.47165,50358
8.47425,53883
8.47687,54790
8.47947,54233
8.48207,52455
8.48468,54851
8.48728,49783
8.48990,51391
8.49250,51613
8.49512,53855
8.49772,52537
8.50032,52072
8.50293,51183
8.50553,57116
8.50815,60105
8.51075,67755
8.51335,66261
8.51597,61100
8.51857,58245
8.52118,58033
8.52378,56852
8.52638,55432
8.52900,55379
8.53160,56751
8.53422,54763
8.53682,53116
8.53942,56805
8.54203,55779
8.54463,55308
8.54725,56579
8.54985,57394
8.55245,58221
8.55507,54334
8.55767,56301
8.56028,57522
8.56288,58253
8.56548,57698
8.56810,59088
8.57070,56220
8.57332,58525
8.57592,57084
8.57853,59240
8.58113,58396
8.58373,59041
8.58635,59001
8.58895,60439
8.59157,58199
8.59417,59717
8.59677,56864
8.59938,60649
8.60198,60316
8.60460,61730
8.60720,59188
8.60980,60273
8.61242,63278
8.61502,60116
8.61763,63758
8.62023,63269
8.62283,62205
8.62545,62148
8.62805,61318
8.63067,61778
8.63327,63150
8.63587,62280
8.63848,64205
8.64108,65785
8.64370,67085
8.64630,63267
8.64890,65389
8.65152,64023
8.65412,65913
8.65673,67109
8.65933,63889
8.66195,69925
8.66455,67325
8.66715,66551
8.66977,68067
8.67237,71318
8.67498,70743
8.67758,65902
8.68018,69520
8.68280,70083
8.68540,74664
8.68802,72479
8.69062,72352
8.69322,75725
8.69583,75709
8.69843,76304
8.70105,73479
8.70365,77125
8.70625,78647
8.70887,79854
8.71147,80640
8.71408,83713
8.71668,83068
8.71928,80074
8.72190,85583
8.72450,80743
8.72712,80216
8.72972,82693
8.73232,83969
8.73493,82896
8.73753,83260
8.74015,81241
8.74275,83660
8.74537,77551
8.74797,82374
8.75057,76321
8.75318,78617
8.75578,81030
8.75840,80862
8.76100,79405
8.76360,80943
8.76622,82036
8.76882,81524
8.77143,83785
8.77403,80151
8.77663,81196
8.77925,81047
8.78185,82624
8.78447,82873
8.78707,83243
8.78967,86141
8.79228,84260
8.79488,84699
8.79750,84657
8.80010,82110
8.80270,85591
8.80532,84384
8.80792,84249
8.81053,85621
8.81313,84705
8.81573,84595
8.81835,77522
8.82095,87856
8.82357,85674
8.82617,82669
8.82878,88431
8.83138,90114
8.83398,86310
8.83660,89651
8.83920,85650
8.84182,87989
8.84442,87362
8.84702,87999
8.84963,89221
8.85223,91947
8.85485,88821
8.85745,90479
8.86005,88188
8.86267,87885
8.86527,86810
8.86788,88387
8.87048,92603
8.87308,92713
8.87570,92843
8.87830,88246
8.88092,90918
8.88352,94253
8.88612,94960
8.88873,93253
8.89133,93798
8.89395,94244
8.89655,95588
8.89915,91665
8.90177,93133
8.90437,89020
8.90698,90231
8.90958,91089
8.91220,91497
8.91480,91296
8.91740,95893
8.92002,98232
8.92262,96841
8.92523,95241
8.92783,95052
8.93043,97662
8.93305,98130
8.93565,96575
8.93827,104213
8.94087,99109
8.94347,98320
8.94608,98305
8.94868,94201
8.95130,96593
8.95390,96055
8.95650,94011
8.95912,98114
8.96172,94562
8.96433,99295
8.96693,99305
8.96953,95730
8.97215,94822
8.97475,94986
8.97737,96866
8.97997,98094
8.98257,98140
8.98518,99854
8.98778,100790
8.99040,93892
8.99300,102456
8.99562,99757
8.99822,101088
9.00082,100107
9.00343,94558
9.00603,99137
9.00865,98130
9.01125,97979
9.01385,99949
9.01647,101644
9.01907,98782
9.02168,103843
9.02428,94501
9.02688,99280
9.02950,100958
9.03210,96992
9.03472,99280
9.03732,101455
9.03992,99821
9.04253,102199
9.04513,100831
9.04775,102411
9.05035,97095
9.05295,97223
9.05557,102411
9.05817,101954
9.06078,101435
9.06338,102884
9.06598,104903
9.06860,99530
9.07120,101052
9.07382,101770
9.07642,99850
9.07903,102562
9.08163,98254
9.08423,102988
9.08685,99029
9.08945,103110
9.09207,100883
9.09467,104404
9.09727,98133
9.09988,103214
9.10248,99420
9.10510,97134
9.10770,102517
9.11030,99266
9.11292,100358
9.11552,102431
9.11813,102419
9.12073,104490
9.12333,100112
9.12595,105393
9.12855,102913
9.13117,102648
9.13377,102570
9.13637,103392
9.13898,102557
9.14158,104487
9.14420,107681
9.14680,105482
9.14940,106127
9.15202,103536
9.15462,103898
9.15723,103930
9.15983,102517
9.16245,102217
9.16505,106453
9.16765,105561
9.17027,99686
9.17287,103414
9.17548,98847
9.17808,101941
9.18068,99994
9.18330,103406
9.18590,104780
9.18852,104998
9.19112,105359
9.19372,105729
9.19633,109447
9.19893,107399
9.20155,107047
9.20415,107420
9.20675,108369
9.20937,102620
9.21197,106276
9.21458,105307
9.21718,102069
9.21978,98855
9.22240,101137
9.22500,104442
9.22762,102588
9.23022,102999
9.23282,105603
9.23543,101580
9.23803,105521
9.24065,108789
9.24325,104725
9.24587,98831
9.24847,103482
9.25107,107568
9.25368,104489
9.25628,104370
9.25890,103716
9.26150,105197
9.26410,102673
9.26672,104318
9.26932,103997
9.27193,102927
9.27453,103169
9.27713,101719
9.27975,101925
9.28235,102321
9.28497,105050
9.28757,98429
9.29017,103201
9.29278,101986
9.29538,102150
9.29800,103981
9.30060,104892
9.30320,102194
9.30582,104061
9.30842,103311
9.31103,99268
9.31363,103556
9.31623,101245
9.31885,100451
9.32145,107910
9.32407,100204
9.32667,104604
9.32928,100936
9.33188,106224
9.33448,103432
9.33710,106201
9.33970,105449
9.34232,102172
9.34492,107808
9.34752,106227
9.35013,98884
9.35273,104891
9.35535,102504
9.35795,104202
9.36055,100304
9.36317,103673
9.36577,103945
9.36838,103533
9.37098,102998
9.37358,102378
9.37620,100920
9.37880,102362
9.38142,105066
9.38402,102521
9.38662,107237
9.38923,104834
9.39183,101158
9.39445,102962
9.39705,101882
9.39965,105650
9.40227,99431
9.40487,101661
9.40748,101104
9.41008,104261
9.41270,103313
9.41530,105351
9.41790,101371
9.42052,103476
9.42312,103695
9.42573,106583
9.42833,104743
9.43093,107437
9.43355,103028
9.43615,103221
9.43877,102178
9.44137,105515
9.44397,98822
9.44658,100183
9.44918,102646
9.45180,104450
9.45440,103418
9.45700,104781
9.45962,109973
9.46222,106325
9.46483,103479
9.46743,107066
9.47003,105891
9.47265,102109
9.47525,109645
9.47787,104885
9.48047,104825
9.48307,100613
9.48568,103523
9.48828,105894
9.49090,102822
9.49350,105901
9.49612,104866
9.49872,101651
9.50132,103009
9.50393,108254
9.50653,104071
9.50915,103952
9.51175,102191
9.51435,107182
9.51697,102625
9.51957,99630
9.52218,100666
9.52478,101717
9.52738,106554
9.53000,101786
9.53260,104904
9.53522,97919
9.53782,102849
9.54042,100671
9.54303,105068
9.54563,100447
9.54825,101429
9.55085,105561
9.55345,104092
9.55607,103247
9.55867,104696
9.56128,99200
9.56388,100937
9.56648,103065
9.56910,101530
9.57170,98820
9.57432,105767
9.57692,103381
9.57953,102470
9.58213,106498
9.58473,102757
9.58735,103740
9.58995,97950
9.59257,103288
9.59517,101048
9.59777,101689
9.60038,104305
9.60298,106063
9.60560,104636
9.60820,106584
9.61080,99699
9.61342,102947
9.61602,100629
9.61863,104793
9.62123,104157
9.62383,103669
9.62645,105061
9.62905,101552
9.63167,103847
9.63427,105131
9.63687,103341
9.63948,99497
9.64208,102639
9.64470,103431
9.64730,100994
9.64990,102802
9.65252,107099
9.65512,101973
9.65773,100305
9.66033,104952
9.66295,101109
9.66555,103882
9.66815,103998
9.67077,104933
9.67337,104683
9.67598,101440
9.67858,101975
9.68118,103049
9.68380,104667
9.68640,107507
9.68902,104367
9.69162,107001
9.69422,104636
9.69683,104010
9.69943,102815
9.70205,106304
9.70465,104756
9.70725,108560
9.70987,103268
9.71247,106257
9.71508,104683
9.71768,104832
9.72028,108100
9.72290,106797
9.72550,102794
9.72812,103092
9.73072,100863
9.73332,102544
9.73593,106767
9.73853,100990
9.74115,103013
9.74375,103214
9.74637,102332
9.74897,102847
9.75157,102883
9.75418,99860
9.75678,103951
9.75940,105133
9.76200,104919
9.76460,105052
9.76722,101124
9.76982,104387
9.77243,101826
9.77503,99690
9.77763,102744
9.78025,103438
9.78285,102354
9.78547,102966
9.78807,102384
9.79067,106455
9.79328,100638
9.79588,105429
9.79850,103837
9.80110,102408
9.80370,104684
9.80632,100572
9.80892,108657
9.81153,100348
9.81413,104479
9.81673,106923
9.81935,105690
9.82195,101769
9.82457,105877
9.82717,105215
9.82978,102681
9.83238,100166
9.83498,107800
9.83760,105802
9.84020,102557
9.84282,100247
9.84542,105722
9.84802,105081
9.85063,103063
9.85323,100375
9.85585,101803
9.85845,101552
9.86105,101413
9.86367,104527
9.86627,101887
9.86888,105090
9.87148,97281
9.87408,102789
9.87670,104915
9.87930,103619
9.88192,102132
9.88452,104203
9.88712,99325
9.88973,104269
9.89233,103242
9.89495,105657
9.89755,101309
9.90015,101199
9.90277,100543
9.90537,99831
9.90798,102864
9.91058,102903
9.91320,104869
9.91580,106382
9.91840,103287
9.92102,105767
9.92362,100051
9.92623,98630
9.92883,100953
9.93143,101587
9.93405,103518
9.93665,99707
9.93927,107642
9.94187,109704
9.94447,106803
9.94708,96888
9.94968,105845
9.95230,105238
9.95490,100432
9.95750,103872
9.96012,100365
9.96272,104720
9.96533,104419
9.96793,98981
9.97053,104589
9.97315,103913
9.97575,104970
9.97837,101776
9.98097,101584
9.98357,104053
9.98618,102197
9.98878,101999
9.99140,103428
9.99400,101997
9.99662,98173
9.99922,103254
10.00182,96986
10.00443,101458
10.00703,102253
10.00965,102224
10.01225,100681
10.01485,106418
10.01747,103160
10.02007,102118
10.02268,102925
10.02528,103889
10.02788,104134
10.03050,100918
10.03310,104687
10.03572,102304
10.03832,102976
10.04092,99299
10.04353,101505
10.04613,107222
10.04875,103233
10.05135,104433
10.05395,111839
10.05657,108307
10.05917,105469
10.06178,106040
10.06438,105241
10.06698,103013
10.06960,104652
10.07220,105542
10.07482,103479
10.07742,96730
10.08003,99743
10.08263,100988
10.08523,108254
10.08785,106318
10.09045,106003
10.09307,106938
10.09567,107957
10.09827,107872
10.10088,106509
10.10348,105625
10.10610,102973
10.10870,102574
10.11130,105112
10.11392,104455
10.11652,105740
10.11913,104888
10.12173,102968
10.12433,101520
10.12695,107948
10.12955,108501
10.13217,106882
10.13477,105515
10.13737,102121
10.13998,105177
10.14258,101086
10.14520,104809
10.14780,107507
10.15040,106630
10.15302,105032
10.15562,98777
10.15823,103421
10.16083,105828
10.16345,100976
10.16605,102855
10.16865,103807
10.17127,102810
10.17387,100585
10.17648,103993
10.17908,107984
10.18168,99987
10.18430,103613
10.18690,106112
10.18952,100267
10.19212,104088
10.19472,106118
10.19733,106052
10.19993,107692
10.20255,104204
10.20515,108558
10.20775,102923
10.21037,106144
10.21297,104960
10.21558,106562
10.21818,103329
10.22078,104052
10.22340,102626
10.22600,101572
10.22862,105989
10.23122,102459
10.23382,102003
10.23643,103487
10.23903,105682
10.24165,103609
10.24425,101878
10.24687,104876
10.24947,105371
10.25207,106023
10.25468,100638
10.25728,102759
10.25990,100648
10.26250,101855
10.26510,106279
10.26772,106843
10.27032,107349
10.27293,103692
10.27553,105360
10.27813,102377
10.28075,101269
10.28335,104444
10.28597,103767
10.28857,105110
10.29117,104326
10.29378,102615
10.29638,102898
10.29900,102368
10.30160,105177
10.30420,103536
10.30682,103466
10.30942,105985
10.31203,101089
10.31463,105209
10.31723,102802
10.31985,103372
10.32245,104091
10.32507,107092
10.32767,105164
10.33028,108243
10.33288,104318
10.33548,101633
10.33810,104829
10.34070,102852
10.34332,103593
10.34592,97934
10.34852,103349
10.35113,102366
10.35373,102690
10.35635,98518
10.35895,106416
10.36155,102897
10.36417,102532
10.36677,99547
10.36938,104018
10.37198,104260
10.37458,104024
10.37720,101236
10.37980,102092
10.38242,105375
10.38502,106595
10.38762,101729
10.39023,108822
10.39283,107058
10.39545,105566
10.39805,103183
10.40065,104340
10.40327,105494
10.40587,108294
10.40848,104632
10.41108,99821
10.41370,105723
10.41630,103948
10.41890,103903
10.42152,106623
10.42412,105682
10.42673,103205
10.42933,105066
10.43193,102064
10.43455,100719
10.43715,102065
10.43977,108851
10.44237,105222
10.44497,103820
10.44758,108309
10.45018,109480
10.45280,107102
10.45540,104327
10.45800,105621
10.46062,103741
10.46322,108255
10.46583,107194
10.46843,112242
10.47103,106088
10.47365,104692
10.47625,112086
10.47887,104474
10.48147,105539
10.48407,107043
10.48668,113848
10.48928,108805
10.49190,109172
10.49450,110503
10.49712,108291
10.49972,108455
10.50232,113794
10.50493,107825
10.50753,107646
10.51015,107653
10.51275,107411
10.51535,111104
10.51797,105100
10.52057,104984
10.52318,105168
10.52578,105773
10.52838,104976
10.53100,103988
10.53360,107630
10.53622,105009
10.53882,101894
10.54142,108513
10.54403,110031
10.54663,106296
10.54925,106906
10.55185,105203
10.55445,105083
10.55707,109255
10.55967,105588
10.56228,106300
10.56488,105907
10.56748,102807
10.57010,104234
10.57270,105614
10.57532,104398
10.57792,104759
10.58053,107925
10.58313,102494
10.58573,103924
10.58835,110379
10.59095,106949
10.59357,100820
10.59617,106772
10.59877,107671
10.60138,106594
10.60398,104990
10.60660,104240
10.60920,105120
10.61180,105512
10.61442,105033
10.61702,102867
10.61963,101271
10.62223,102512
10.62483,106447
10.62745,103827
10.63005,105189
10.63267,103808
10.63527,104028
10.63787,105894
10.64048,105792
10.64308,106091
10.64570,107152
10.64830,107001
10.65090,103698
10.65352,105886
10.65612,102931
10.65873,105698
10.66133,105407
10.66395,103472
