D:\data\overige2021\rk\20200201rk_cocacase28x\B039700.D Mon Feb 01 18:38:00 2021
Start of data points
1.58978,11914
1.59240,13079
1.59500,12119
1.59762,12394
1.60022,12473
1.60282,12902
1.60543,14135
1.60803,13704
1.61065,11933
1.61325,12473
1.61585,12707
1.61847,13075
1.62107,11852
1.62368,11649
1.62628,12681
1.62888,13463
1.63150,13624
1.63410,14381
1.63672,13521
1.63932,11276
1.64193,12893
1.64453,11223
1.64713,10823
1.64975,11074
1.65235,10970
1.65497,12397
1.65757,10244
1.66017,10405
1.66278,10641
1.66538,13761
1.66800,10961
1.67060,10803
1.67320,12366
1.67582,10629
1.67842,10763
1.68103,10862
1.68363,10968
1.68623,12667
1.68885,11974
1.69145,12562
1.69407,11495
1.69667,10357
1.69927,10080
1.70188,8733
1.70448,10562
1.70710,10774
1.70970,9722
1.71230,10417
1.71492,10443
1.71752,9511
1.72013,9628
1.72273,10565
1.72535,10610
1.72795,11362
1.73055,10820
1.73317,10338
1.73577,12098
1.73838,10238
1.74098,10541
1.74358,11039
1.74620,8439
1.74880,10211
1.75142,10534
1.75402,10097
1.75662,10803
1.75923,8229
1.76183,7331
1.76445,8893
1.76705,9905
1.76965,9168
1.77227,9818
1.77487,8708
1.77748,9243
1.78008,9671
1.78268,9371
1.78530,9608
1.78790,9483
1.79052,8389
1.79312,9945
1.79572,8982
1.79833,7058
1.80093,8901
1.80355,7968
1.80615,8308
1.80877,9892
1.81137,8437
1.81397,7860
1.81658,8131
1.81918,8221
1.82180,7781
1.82440,9947
1.82700,8983
1.82962,8478
1.83222,8459
1.83483,8465
1.83743,7760
1.84003,8703
1.84265,7811
1.84525,8468
1.84787,8284
1.85047,8439
1.85307,7453
1.85568,7716
1.85828,7002
1.86090,6688
1.86350,7908
1.86610,7738
1.86872,8088
1.87132,9102
1.87393,7060
1.87653,8742
1.87913,7674
1.88175,7329
1.88435,7554
1.88697,8077
1.88957,6883
1.89218,7986
1.89478,9115
1.89738,6682
1.90000,6958
1.90260,7737
1.90522,8983
1.90782,8061
1.91042,8311
1.91303,9760
1.91563,6795
1.91825,8510
1.92085,7987
1.92345,7262
1.92607,7067
1.92867,7891
1.93128,8600
1.93388,7694
1.93648,7823
1.93910,7951
1.94170,7371
1.94432,7624
1.94692,7519
1.94952,6941
1.95213,8397
1.95473,7379
1.95735,7639
1.95995,6765
1.96255,5641
1.96517,7680
1.96777,7971
1.97038,6913
1.97298,8317
1.97560,7045
1.97820,7451
1.98080,6607
1.98342,7039
1.98602,7756
1.98863,7810
1.99123,6979
1.99383,6408
1.99645,6582
1.99905,8664
2.00167,6498
2.00427,6991
2.00687,7377
2.00948,6580
2.01208,7504
2.01470,5664
2.01730,6179
2.01990,6603
2.02252,7018
2.02512,6215
2.02773,6512
2.03033,7381
2.03293,6796
2.03555,10918
2.03815,16427
2.04077,22671
2.04337,26545
2.04597,30608
2.04858,33677
2.05118,28346
2.05380,24515
2.05640,22829
2.05902,21163
2.06162,18895
2.06422,16597
2.06683,12879
2.06943,16222
2.07205,12899
2.07465,13572
2.07725,11287
2.07987,10819
2.08247,11230
2.08508,11353
2.08768,11382
2.09028,11026
2.09290,10527
2.09550,11788
2.09812,10617
2.10072,10099
2.10332,10733
2.10593,9488
2.10853,10215
2.11115,8481
2.11375,9520
2.11635,8626
2.11897,10099
2.12157,9677
2.12418,8846
2.12678,8659
2.12938,8534
2.13200,8821
2.13460,10216
2.13722,9766
2.13982,10272
2.14243,8517
2.14503,8074
2.14763,8417
2.15025,8300
2.15285,7711
2.15547,8905
2.15807,8858
2.16067,7510
2.16328,6659
2.16588,8474
2.16850,8452
2.17110,7819
2.17370,6912
2.17632,7558
2.17892,8533
2.18153,7856
2.18413,7489
2.18673,8392
2.18935,8617
2.19195,7737
2.19457,7243
2.19717,6510
2.19977,7717
2.20238,8080
2.20498,8089
2.20760,7335
2.21020,6332
2.21280,7305
2.21542,7492
2.21802,8246
2.22063,7318
2.22323,7718
2.22585,7776
2.22845,7127
2.23105,8023
2.23367,6666
2.23627,7674
2.23888,6533
2.24148,6744
2.24408,7427
2.24670,8315
2.24930,6700
2.25192,8321
2.25452,6425
2.25712,6591
2.25973,6706
2.26233,7877
2.26495,6370
2.26755,6567
2.27015,6694
2.27277,8208
2.27537,6843
2.27798,5982
2.28058,6005
2.28318,6550
2.28580,7427
2.28840,7508
2.29102,7491
2.29362,8654
2.29622,6463
2.29883,7516
2.30143,7350
2.30405,6967
2.30665,6654
2.30927,7640
2.31187,6487
2.31447,6968
2.31708,6494
2.31968,7257
2.32230,8103
2.32490,7587
2.32750,6246
2.33012,5532
2.33272,7301
2.33533,6903
2.33793,6556
2.34053,7344
2.34315,6548
2.34575,7225
2.34837,7448
2.35097,5794
2.35357,7120
2.35618,6808
2.35878,6693
2.36140,5589
2.36400,6575
2.36660,5974
2.36922,6554
2.37182,6065
2.37443,7393
2.37703,6645
2.37963,6713
2.38225,8049
2.38485,7125
2.38747,7167
2.39007,6195
2.39268,7293
2.39528,7489
2.39788,5739
2.40050,7183
2.40310,6414
2.40572,6313
2.40832,6113
2.41092,5745
2.41353,7123
2.41613,6292
2.41875,5803
2.42135,5023
2.42395,5525
2.42657,6753
2.42917,6870
2.43178,7361
2.43438,5494
2.43698,7283
2.43960,5722
2.44220,6477
2.44482,6928
2.44742,6027
2.45002,7179
2.45263,7128
2.45523,6126
2.45785,6232
2.46045,7665
2.46305,8048
2.46567,10322
2.46827,10754
2.47088,10309
2.47348,12446
2.47610,11938
2.47870,11158
2.48130,10640
2.48392,10872
2.48652,9663
2.48913,11583
2.49173,9850
2.49433,11221
2.49695,7921
2.49955,8689
2.50217,7025
2.50477,9009
2.50737,8053
2.50998,8240
2.51258,7393
2.51520,8100
2.51780,7229
2.52040,6038
2.52302,8415
2.52562,6966
2.52823,6630
2.53083,6926
2.53343,7337
2.53605,7628
2.53865,6376
2.54127,6724
2.54387,7172
2.54647,6240
2.54908,7616
2.55168,7763
2.55430,8115
2.55690,7199
2.55952,6383
2.56212,6656
2.56472,4645
2.56733,5758
2.56993,5886
2.57255,6539
2.57515,7317
2.57775,7956
2.58037,8164
2.58297,11024
2.58558,13829
2.58818,15089
2.59078,16357
2.59340,14020
2.59600,14220
2.59862,11157
2.60122,9013
2.60382,8157
2.60643,8990
2.60903,7080
2.61165,6469
2.61425,7127
2.61685,7411
2.61947,7026
2.62207,8478
2.62468,8986
2.62728,9589
2.62988,12764
2.63250,11177
2.63510,10652
2.63772,11077
2.64032,10747
2.64293,8771
2.64553,10233
2.64813,7679
2.65075,7554
2.65335,6818
2.65597,6332
2.65857,7057
2.66117,5886
2.66378,5661
2.66638,5650
2.66900,6479
2.67160,7388
2.67420,6047
2.67682,6371
2.67942,6528
2.68203,5084
2.68463,6348
2.68723,5787
2.68985,5625
2.69245,6915
2.69507,5906
2.69767,6336
2.70027,5602
2.70288,6358
2.70548,5798
2.70810,5428
2.71070,6564
2.71330,7806
2.71592,5478
2.71852,5510
2.72113,6499
2.72373,6016
2.72635,5778
2.72895,5823
2.73155,6068
2.73417,5808
2.73677,7026
2.73938,7255
2.74198,6130
2.74458,6555
2.74720,5516
2.74980,5560
2.75242,7017
2.75502,6724
2.75762,5795
2.76023,6824
2.76283,6516
2.76545,5436
2.76805,6773
2.77065,6587
2.77327,5701
2.77587,5049
2.77848,6862
2.78108,6619
2.78368,6479
2.78630,5865
2.78890,5753
2.79152,6844
2.79412,6265
2.79672,5091
2.79933,6522
2.80193,7774
2.80455,6506
2.80715,6822
2.80977,6625
2.81237,7531
2.81497,5880
2.81758,7333
2.82018,5879
2.82280,5736
2.82540,6192
2.82800,6031
2.83062,5671
2.83322,5729
2.83583,6041
2.83843,6270
2.84103,6572
2.84365,6842
2.84625,5650
2.84887,7571
2.85147,6983
2.85407,4846
2.85668,6866
2.85928,6780
2.86190,6236
2.86450,6848
2.86710,7175
2.86972,7617
2.87232,6359
2.87493,6151
2.87753,7887
2.88013,7175
2.88275,5804
2.88535,7784
2.88797,6288
2.89057,6171
2.89318,7145
2.89578,6416
2.89838,8241
2.90100,7136
2.90360,6293
2.90622,6970
2.90882,7487
2.91142,7064
2.91403,7190
2.91663,6698
2.91925,7359
2.92185,8058
2.92445,6045
2.92707,6750
2.92967,6389
2.93228,7209
2.93488,6368
2.93748,8020
2.94010,5908
2.94270,5267
2.94532,7716
2.94792,7915
2.95052,7306
2.95313,6602
2.95573,6100
2.95835,6203
2.96095,7044
2.96355,5419
2.96617,7546
2.96877,6788
2.97138,6836
2.97398,8864
2.97660,7492
2.97920,8335
2.98180,7491
2.98442,7342
2.98702,6722
2.98963,6663
2.99223,5999
2.99483,7588
2.99745,6776
3.00005,6129
3.00267,5765
3.00527,6078
3.00787,6113
3.01048,6402
3.01308,6678
3.01570,5086
3.01830,5282
3.02090,5101
3.02352,7251
3.02612,6384
3.02873,6958
3.03133,7549
3.03393,5097
3.03655,4716
3.03915,5714
3.04177,6353
3.04437,6580
3.04697,6159
3.04958,6282
3.05218,5109
3.05480,5518
3.05740,5657
3.06002,5423
3.06262,5209
3.06522,7157
3.06783,6143
3.07043,5873
3.07305,7351
3.07565,5520
3.07825,5430
3.08087,6285
3.08347,6562
3.08608,5903
3.08868,5202
3.09128,5965
3.09390,6204
3.09650,5586
3.09912,5366
3.10172,4915
3.10432,5541
3.10693,6113
3.10953,6841
3.11215,5338
3.11475,5317
3.11735,6740
3.11997,5340
3.12257,5483
3.12518,5338
3.12778,6063
3.13038,6470
3.13300,6401
3.13560,5814
3.13822,5350
3.14082,6533
3.14343,8430
3.14603,9486
3.14863,9858
3.15125,10129
3.15385,10632
3.15647,11176
3.15907,11572
3.16167,11259
3.16428,11608
3.16688,13505
3.16950,12366
3.17210,13046
3.17470,12123
3.17732,11849
3.17992,12855
3.18253,12467
3.18513,12931
3.18773,11088
3.19035,11996
3.19295,11788
3.19557,11941
3.19817,11352
3.20077,12258
3.20338,12026
3.20598,10244
3.20860,11008
3.21120,11223
3.21380,12338
3.21642,11821
3.21902,11455
3.22163,9649
3.22423,10290
3.22685,9392
3.22945,9516
3.23205,10916
3.23467,9873
3.23727,9863
3.23988,11378
3.24248,10524
3.24508,10800
3.24770,9439
3.25030,10579
3.25292,10345
3.25552,10509
3.25812,10841
3.26073,9791
3.26333,10151
3.26595,10139
3.26855,10973
3.27115,9149
3.27377,10162
3.27637,10323
3.27898,10074
3.28158,10748
3.28418,11597
3.28680,9778
3.28940,11395
3.29202,11529
3.29462,10865
3.29722,10410
3.29983,12383
3.30243,12718
3.30505,11955
3.30765,9502
3.31027,9464
3.31287,8969
3.31547,10259
3.31808,10809
3.32068,10401
3.32330,9763
3.32590,11804
3.32850,10190
3.33112,8608
3.33372,9668
3.33633,10275
3.33893,9427
3.34153,9055
3.34415,10252
3.34675,11226
3.34937,9499
3.35197,8546
3.35457,9893
3.35718,9447
3.35978,8824
3.36240,9266
3.36500,8842
3.36760,8904
3.37022,7970
3.37282,8789
3.37543,9036
3.37803,8302
3.38063,9352
3.38325,8353
3.38585,8759
3.38847,9387
3.39107,8689
3.39368,8921
3.39628,8573
3.39888,8937
3.40150,10130
3.40410,8313
3.40672,9806
3.40932,9081
3.41192,10874
3.41453,8615
3.41713,9181
3.41975,9825
3.42235,8627
3.42495,10124
3.42757,9077
3.43017,7960
3.43278,9863
3.43538,10216
3.43798,8972
3.44060,9896
3.44320,9197
3.44582,7866
3.44842,9813
3.45102,9543
3.45363,8437
3.45623,8407
3.45885,8626
3.46145,8834
3.46405,8619
3.46667,7740
3.46927,8498
3.47188,8053
3.47448,8697
3.47710,9088
3.47970,8623
3.48230,9118
3.48492,7274
3.48752,8661
3.49013,8929
3.49273,9573
3.49533,8084
3.49795,9001
3.50055,8904
3.50317,9867
3.50577,10659
3.50837,10403
3.51098,13883
3.51358,38269
3.51620,102711
3.51880,217992
3.52140,353144
3.52402,448416
3.52662,437920
3.52923,336464
3.53183,219591
3.53443,135109
3.53705,82693
3.53965,62437
3.54227,47508
3.54487,37488
3.54747,33616
3.55008,28844
3.55268,26279
3.55530,27256
3.55790,21104
3.56052,20746
3.56312,20409
3.56572,21713
3.56833,18815
3.57093,17081
3.57355,21098
3.57615,20068
3.57875,18214
3.58137,18707
3.58397,16476
3.58658,15430
3.58918,18964
3.59178,19964
3.59440,20679
3.59700,20709
3.59962,20998
3.60222,21319
3.60482,17403
3.60743,17527
3.61003,17964
3.61265,18085
3.61525,17155
3.61785,14962
3.62047,17270
3.62307,15782
3.62568,17361
3.62828,15532
3.63088,16733
3.63350,17090
3.63610,17911
3.63872,19952
3.64132,19682
3.64393,21342
3.64653,17790
3.64913,18355
3.65175,18414
3.65435,18223
3.65697,16515
3.65957,15452
3.66217,14698
3.66478,13964
3.66738,16778
3.67000,14920
3.67260,14376
3.67520,16659
3.67782,16484
3.68042,14126
3.68303,14138
3.68563,16880
3.68823,15802
3.69085,16267
3.69345,14975
3.69607,14462
3.69867,16037
3.70127,17419
3.70388,15253
3.70648,16447
3.70910,14953
3.71170,16485
3.71430,15244
3.71692,14131
3.71952,12924
3.72213,15676
3.72473,12439
3.72735,13141
3.72995,15333
3.73255,13049
3.73517,13283
3.73777,13956
3.74038,14930
3.74298,14979
3.74558,14398
3.74820,15965
3.75080,12823
3.75342,15331
3.75602,14482
3.75862,15311
3.76123,13463
3.76383,14406
3.76645,11531
3.76905,13777
3.77165,12539
3.77427,13520
3.77687,12077
3.77948,13161
3.78208,13636
3.78468,13587
3.78730,13018
3.78990,12397
3.79252,13035
3.79512,11862
3.79772,13103
3.80033,11022
3.80293,12055
3.80555,13295
3.80815,14310
3.81077,12533
3.81337,13071
3.81597,12140
3.81858,13869
3.82118,13064
3.82380,13122
3.82640,14202
3.82900,11415
3.83162,12451
3.83422,12525
3.83683,12434
3.83943,13003
3.84203,14102
3.84465,15677
3.84725,13069
3.84987,13553
3.85247,14262
3.85507,14833
3.85768,13601
3.86028,12932
3.86290,13397
3.86550,13718
3.86810,14246
3.87072,12729
3.87332,13827
3.87593,12975
3.87853,15437
3.88113,15158
3.88375,18684
3.88635,26195
3.88897,32481
3.89157,38385
3.89418,38645
3.89678,33224
3.89938,28220
3.90200,24943
3.90460,21164
3.90722,21734
3.90982,18754
3.91242,18545
3.91503,19622
3.91763,15750
3.92025,15443
3.92285,16810
3.92545,16605
3.92807,21354
3.93067,31804
3.93328,44751
3.93588,56379
3.93848,66585
3.94110,63482
3.94370,58870
3.94632,45275
3.94892,34851
3.95152,28869
3.95413,26512
3.95673,23126
3.95935,21634
3.96195,19270
3.96455,19299
3.96717,20486
3.96977,20594
3.97238,17895
3.97498,16928
3.97760,15979
3.98020,17228
3.98280,16836
3.98542,16655
3.98802,15265
3.99063,13836
3.99323,16693
3.99583,14211
3.99845,14292
4.00105,13684
4.00367,16156
4.00627,16155
4.00887,14923
4.01148,13915
4.01408,13860
4.01670,14631
4.01930,14490
4.02190,15727
4.02452,13450
4.02712,13447
4.02973,13593
4.03233,13979
4.03493,15230
4.03755,13456
4.04015,14558
4.04277,15826
4.04537,13877
4.04797,14535
4.05058,15879
4.05318,15492
4.05580,13618
4.05840,13871
4.06102,13188
4.06362,14633
4.06622,14789
4.06883,14718
4.07143,13385
4.07405,16534
4.07665,13977
4.07925,12281
4.08187,13162
4.08447,11534
4.08708,14508
4.08968,13855
4.09228,13006
4.09490,14419
4.09750,11878
4.10012,15254
4.10272,12068
4.10532,12802
4.10793,14109
4.11053,12575
4.11315,13702
4.11575,13074
4.11835,14428
4.12097,13872
4.12357,14746
4.12618,14246
4.12878,15655
4.13138,13635
4.13400,11926
4.13660,13059
4.13922,13643
4.14182,13828
4.14443,12508
4.14703,13471
4.14963,10985
4.15225,10889
4.15485,13084
4.15747,11142
4.16007,12083
4.16267,13283
4.16528,12714
4.16788,13388
4.17050,13203
4.17310,11443
4.17570,13197
4.17832,12670
4.18092,13270
4.18353,13470
4.18613,12044
4.18873,11969
4.19135,10889
4.19395,12154
4.19657,11138
4.19917,12260
4.20177,11708
4.20438,13138
4.20698,11455
4.20960,10795
4.21220,11773
4.21482,12452
4.21742,12858
4.22002,13024
4.22263,11978
4.22523,10878
4.22785,12397
4.23045,11773
4.23305,11391
4.23567,11434
4.23827,11835
4.24088,11986
4.24348,10982
4.24608,12199
4.24870,11462
4.25130,11119
4.25392,11108
4.25652,13535
4.25912,11914
4.26173,12703
4.26433,12145
4.26695,10901
4.26955,11208
4.27215,10822
4.27477,11254
4.27737,12237
4.27998,11751
4.28258,11577
4.28518,12162
4.28780,12366
4.29040,12478
4.29302,12808
4.29562,11004
4.29823,11685
4.30083,13513
4.30343,11763
4.30605,11378
4.30865,15331
4.31127,11553
4.31387,12204
4.31647,12353
4.31908,11221
4.32168,11187
4.32430,13164
4.32690,12862
4.32950,11012
4.33212,11026
4.33472,14024
4.33733,11462
4.33993,12102
4.34253,12970
4.34515,13616
4.34775,11417
4.35037,9864
4.35297,13142
4.35557,11368
4.35818,12040
4.36078,11910
4.36340,13319
4.36600,12972
4.36860,10300
4.37122,11588
4.37382,11183
4.37643,11243
4.37903,13252
4.38165,11929
4.38425,10760
4.38685,11272
4.38947,12802
4.39207,11866
4.39468,11699
4.39728,11638
4.39988,10986
4.40250,13421
4.40510,15539
4.40772,17963
4.41032,15912
4.41292,16840
4.41553,17827
4.41813,16471
4.42075,14962
4.42335,14504
4.42595,13344
4.42857,13548
4.43117,14152
4.43378,11638
4.43638,13097
4.43898,13289
4.44160,11701
4.44420,12314
4.44682,13315
4.44942,14102
4.45202,12546
4.45463,11341
4.45723,11366
4.45985,10932
4.46245,11326
4.46507,11840
4.46767,11113
4.47027,12614
4.47288,11213
4.47548,12753
4.47810,11164
4.48070,10933
4.48330,11232
4.48592,12440
4.48852,8578
4.49113,12276
4.49373,10825
4.49633,13699
4.49895,12907
4.50155,11916
4.50417,12331
4.50677,10655
4.50937,12582
4.51198,11790
4.51458,12000
4.51720,12019
4.51980,11123
4.52240,12100
4.52502,11085
4.52762,11762
4.53023,11098
4.53283,10923
4.53543,10849
4.53805,12742
4.54065,11487
4.54327,10434
4.54587,10698
4.54848,11943
4.55108,10946
4.55368,11925
4.55630,11200
4.55890,11832
4.56152,10515
4.56412,10183
4.56672,12319
4.56933,9981
4.57193,10177
4.57455,9825
4.57715,10363
4.57975,11854
4.58237,11346
4.58497,11411
4.58758,10866
4.59018,10685
4.59278,11444
4.59540,13244
4.59800,10201
4.60062,11495
4.60322,10390
4.60582,11790
4.60843,10888
4.61103,10343
4.61365,10880
4.61625,11068
4.61885,12666
4.62147,12624
4.62407,12555
4.62668,10425
4.62928,11834
4.63190,11830
4.63450,10561
4.63710,10707
4.63972,10772
4.64232,10448
4.64493,11436
4.64753,10093
4.65013,11151
4.65275,12122
4.65535,10938
4.65797,11405
4.66057,10297
4.66317,10099
4.66578,10081
4.66838,10991
4.67100,10396
4.67360,11077
4.67620,10909
4.67882,11259
4.68142,9456
4.68403,10276
4.68663,11833
4.68923,11888
4.69185,11122
4.69445,11587
4.69707,12495
4.69967,11118
4.70227,11986
4.70488,12829
4.70748,11198
4.71010,10697
4.71270,12411
4.71532,12528
4.71792,10673
4.72052,11495
4.72313,12414
4.72573,10662
4.72835,10605
4.73095,11145
4.73355,12566
4.73617,10755
4.73877,11609
4.74138,11936
4.74398,11333
4.74658,10887
4.74920,13221
4.75180,11597
4.75442,9394
4.75702,11072
4.75962,12195
4.76223,11733
4.76483,11403
4.76745,11422
4.77005,9171
4.77265,11459
4.77527,10378
4.77787,10982
4.78048,11223
4.78308,11127
4.78568,11385
4.78830,11867
4.79090,10383
4.79352,10363
4.79612,11809
4.79873,11068
4.80133,11110
4.80393,9809
4.80655,9696
4.80915,12140
4.81177,11459
4.81437,11318
4.81697,11768
4.81958,10872
4.82218,11084
4.82480,12358
4.82740,12042
4.83000,11265
4.83262,10375
4.83522,12699
4.83783,11341
4.84043,10002
4.84303,11280
4.84565,10155
4.84825,11840
4.85087,12433
4.85347,12160
4.85607,12731
4.85868,10313
4.86128,11488
4.86390,11417
4.86650,10423
4.86910,10885
4.87172,11073
4.87432,11947
4.87693,9734
4.87953,11562
4.88215,13202
4.88475,11330
4.88735,11412
4.88997,13079
4.89257,12426
4.89518,13287
4.89778,14109
4.90038,13329
4.90300,12179
4.90560,10513
4.90822,13861
4.91082,10267
4.91342,12008
4.91603,13189
4.91863,11905
4.92125,12202
4.92385,11801
4.92645,12010
4.92907,11912
4.93167,12407
4.93428,11277
4.93688,9613
4.93948,10385
4.94210,11489
4.94470,10875
4.94732,11412
4.94992,12076
4.95252,11588
4.95513,9494
4.95773,12417
4.96035,11618
4.96295,10289
4.96557,10869
4.96817,11345
4.97077,10552
4.97338,11455
4.97598,11573
4.97860,10384
4.98120,10833
4.98380,11127
4.98642,11284
4.98902,10481
4.99163,10958
4.99423,10367
4.99683,10707
4.99945,10065
5.00205,11410
5.00467,10001
5.00727,10749
5.00987,11182
5.01248,11976
5.01508,10833
5.01770,10206
5.02030,11964
5.02290,12114
5.02552,9523
5.02812,9236
5.03073,11938
5.03333,11932
5.03593,11421
5.03855,11154
5.04115,10292
5.04377,11464
5.04637,11568
5.04898,10483
5.05158,13200
5.05418,10410
5.05680,11031
5.05940,11635
5.06202,10994
5.06462,10202
5.06722,9197
5.06983,9965
5.07243,10986
5.07505,10674
5.07765,11577
5.08025,9874
5.08287,11106
5.08547,11181
5.08808,11559
5.09068,13090
5.09328,12424
5.09590,14991
5.09850,13754
5.10112,16556
5.10372,15793
5.10632,15845
5.10893,13711
5.11153,12627
5.11415,13776
5.11675,13257
5.11935,12394
5.12197,12095
5.12457,11434
5.12718,13989
5.12978,11392
5.13240,9271
5.13500,12121
5.13760,12637
5.14022,10512
5.14282,10555
5.14543,12312
5.14803,12348
5.15063,10824
5.15325,10767
5.15585,11096
5.15847,11536
5.16107,11996
5.16367,11653
5.16628,11756
5.16888,11304
5.17150,12569
5.17410,9216
5.17670,11017
5.17932,11209
5.18192,11370
5.18453,10341
5.18713,10878
5.18973,12386
5.19235,10638
5.19495,10291
5.19757,12686
5.20017,11680
5.20277,11959
5.20538,12185
5.20798,14002
5.21060,12742
5.21320,10038
5.21582,10877
5.21842,13527
5.22102,13363
5.22363,11176
5.22623,10812
5.22885,11090
5.23145,11434
5.23405,11835
5.23667,11807
5.23927,10345
5.24188,11038
5.24448,11336
5.24708,11509
5.24970,11435
5.25230,12695
5.25492,11679
5.25752,11716
5.26012,11175
5.26273,12092
5.26533,11375
5.26795,10896
5.27055,11077
5.27315,9963
5.27577,10490
5.27837,10935
5.28098,11203
5.28358,9373
5.28618,11327
5.28880,11009
5.29140,10181
5.29402,11113
5.29662,11782
5.29923,11912
5.30183,11161
5.30443,10234
5.30705,11177
5.30965,11097
5.31227,9933
5.31487,10327
5.31747,11608
5.32008,11794
5.32268,12141
5.32530,10923
5.32790,10441
5.33050,11144
5.33312,10794
5.33572,12196
5.33833,12221
5.34093,10754
5.34353,11234
5.34615,11646
5.34875,10574
5.35137,12457
5.35397,10456
5.35657,11075
5.35918,11245
5.36178,12060
5.36440,10627
5.36700,12136
5.36960,9179
5.37222,11918
5.37482,12855
5.37743,11321
5.38003,10343
5.38265,12064
5.38525,11157
5.38785,12039
5.39047,9726
5.39307,13110
5.39568,12448
5.39828,10960
5.40088,10193
5.40350,10492
5.40610,9768
5.40872,10886
5.41132,12532
5.41392,12278
5.41653,11437
5.41913,11289
5.42175,12193
5.42435,10476
5.42695,13357
5.42957,9800
5.43217,12301
5.43478,10815
5.43738,9950
5.43998,12252
5.44260,10942
5.44520,10780
5.44782,10999
5.45042,13434
5.45302,13649
5.45563,13855
5.45823,16633
5.46085,16167
5.46345,15316
5.46607,13480
5.46867,12463
5.47127,12324
5.47388,13182
5.47648,12808
5.47910,11504
5.48170,10911
5.48430,13131
5.48692,12280
5.48952,12437
5.49213,12132
5.49473,11005
5.49733,10970
5.49995,11667
5.50255,13518
5.50517,9938
5.50777,10890
5.51037,13198
5.51298,12099
5.51558,12477
5.51820,13386
5.52080,12484
5.52340,11651
5.52602,12570
5.52862,14212
5.53123,12867
5.53383,12398
5.53643,11687
5.53905,11442
5.54165,11587
5.54427,13226
5.54687,13976
5.54948,13599
5.55208,11419
5.55468,10934
5.55730,11716
5.55990,11814
5.56252,11950
5.56512,12509
5.56772,13435
5.57033,12407
5.57293,12052
5.57555,12493
5.57815,11165
5.58075,12815
5.58337,13299
5.58597,11451
5.58858,12105
5.59118,12728
5.59378,12169
5.59640,11864
5.59900,11496
5.60162,12059
5.60422,12382
5.60682,10957
5.60943,12215
5.61203,13794
5.61465,10869
5.61725,11578
5.61985,13432
5.62247,12922
5.62507,11830
5.62768,11427
5.63028,11644
5.63290,11177
5.63550,11729
5.63810,12328
5.64072,11705
5.64332,10182
5.64593,11691
5.64853,11635
5.65113,11868
5.65375,12459
5.65635,12804
5.65897,10976
5.66157,11069
5.66417,11590
5.66678,10345
5.66938,12286
5.67200,11542
5.67460,11274
5.67720,11746
5.67982,12313
5.68242,11434
5.68503,11169
5.68763,11100
5.69023,11061
5.69285,13172
5.69545,11694
5.69807,12792
5.70067,15196
5.70327,15254
5.70588,15624
5.70848,15080
5.71110,14757
5.71370,15317
5.71632,13228
5.71892,11645
5.72152,12666
5.72413,12487
5.72673,11197
5.72935,13289
5.73195,12520
5.73455,10385
5.73717,11876
5.73977,10519
5.74238,10817
5.74498,11258
5.74758,11448
5.75020,13335
5.75280,12711
5.75542,13360
5.75802,10894
5.76062,12777
5.76323,12456
5.76583,12030
5.76845,11946
5.77105,13905
5.77365,11067
5.77627,12644
5.77887,12133
5.78148,13252
5.78408,14003
5.78668,13273
5.78930,11957
5.79190,12823
5.79452,13515
5.79712,13150
5.79973,12754
5.80233,14104
5.80493,13045
5.80755,13542
5.81015,17538
5.81277,28213
5.81537,61427
5.81797,125735
5.82058,196905
5.82318,275080
5.82580,326532
5.82840,282936
5.83100,196806
5.83362,121994
5.83622,72851
5.83883,50105
5.84143,40710
5.84403,40476
5.84665,36263
5.84925,31562
5.85187,26911
5.85447,21486
5.85707,18461
5.85968,18576
5.86228,17361
5.86490,14995
5.86750,16336
5.87010,18611
5.87272,35219
5.87532,93490
5.87793,245057
5.88053,577835
5.88315,1235223
5.88575,2234905
5.88835,3212069
5.89097,3638001
5.89357,3180529
5.89618,2179009
5.89878,1244384
5.90138,687499
5.90400,409500
5.90660,278616
5.90922,209813
5.91182,170279
5.91442,141383
5.91703,120002
5.91963,108179
5.92225,97229
5.92485,91903
5.92745,87189
5.93007,80540
5.93267,72220
5.93528,70747
5.93788,66375
5.94048,63460
5.94310,64765
5.94570,58045
5.94832,53191
5.95092,51886
5.95352,50564
5.95613,45419
5.95873,45076
5.96135,45555
5.96395,39389
5.96657,40585
5.96917,39498
5.97177,38601
5.97438,37127
5.97698,36063
5.97960,34695
5.98220,35503
5.98480,35983
5.98742,33493
5.99002,35324
5.99263,36837
5.99523,34705
5.99783,35257
6.00045,33840
6.00305,33585
6.00567,28695
6.00827,31408
6.01087,30561
6.01348,29636
6.01608,26465
6.01870,30620
6.02130,28046
6.02390,32740
6.02652,28353
6.02912,29017
6.03173,28115
6.03433,26615
6.03693,26978
6.03955,24104
6.04215,25027
6.04477,27657
6.04737,27198
6.04998,28846
6.05258,33532
6.05518,31520
6.05780,30920
6.06040,33516
6.06302,28052
6.06562,29491
6.06822,28516
6.07083,28445
6.07343,28348
6.07605,23929
6.07865,25036
6.08125,27211
6.08387,25527
6.08647,24564
6.08908,25264
6.09168,23815
6.09428,23310
6.09690,21859
6.09950,23298
6.10212,22361
6.10472,22543
6.10732,23611
6.10993,21881
6.11253,23558
6.11515,20241
6.11775,22271
6.12035,21557
6.12297,22952
6.12557,23181
6.12818,19468
6.13078,20172
6.13340,21182
6.13600,21623
6.13860,21027
6.14122,20984
6.14382,21623
6.14643,19791
6.14903,21532
6.15163,19342
6.15425,19808
6.15685,20104
6.15947,18840
6.16207,19590
6.16467,19951
6.16728,17329
6.16988,19817
6.17250,22002
6.17510,20424
6.17770,18849
6.18032,19123
6.18292,18109
6.18553,18063
6.18813,17987
6.19073,18876
6.19335,19575
6.19595,19555
6.19857,16785
6.20117,17564
6.20377,17674
6.20638,16841
6.20898,17250
6.21160,18325
6.21420,19990
6.21682,19328
6.21942,17104
6.22202,16979
6.22463,18243
6.22723,19135
6.22985,19419
6.23245,21350
6.23505,17142
6.23767,17824
6.24027,16777
6.24288,17368
6.24548,18459
6.24808,16009
6.25070,17750
6.25330,16723
6.25592,17519
6.25852,16923
6.26112,16700
6.26373,16787
6.26633,16337
6.26895,18885
6.27155,19163
6.27415,18155
6.27677,17435
6.27937,18860
6.28198,17378
6.28458,18595
6.28718,16469
6.28980,18595
6.29240,17956
6.29502,16911
6.29762,17760
6.30023,15628
6.30283,17891
6.30543,15818
6.30805,14256
6.31065,16287
6.31327,17162
6.31587,16735
6.31847,16770
6.32108,16954
6.32368,16643
6.32630,16867
6.32890,16816
6.33150,17016
6.33412,16489
6.33672,14716
6.33933,14650
6.34193,15971
6.34453,15424
6.34715,15406
6.34975,18138
6.35237,18819
6.35497,17138
6.35757,17070
6.36018,15395
6.36278,15088
6.36540,15512
6.36800,16943
6.37060,15118
6.37322,16314
6.37582,15615
6.37843,18321
6.38103,17958
6.38365,17396
6.38625,19773
6.38885,16530
6.39147,18627
6.39407,16028
6.39668,16220
6.39928,17123
6.40188,16111
6.40450,17181
6.40710,17294
6.40972,17865
6.41232,17929
6.41492,19358
6.41753,15782
6.42013,16776
6.42275,16374
6.42535,16345
6.42795,17430
6.43057,16479
6.43317,17014
6.43578,16139
6.43838,14852
6.44098,16544
6.44360,16277
6.44620,16861
6.44882,15165
6.45142,15809
6.45402,16190
6.45663,15376
6.45923,15044
6.46185,16535
6.46445,15315
6.46707,16556
6.46967,14909
6.47227,14636
6.47488,16979
6.47748,17666
6.48010,16871
6.48270,16726
6.48530,15808
6.48792,17406
6.49052,18123
6.49313,15871
6.49573,16276
6.49833,17456
6.50095,19053
6.50355,21329
6.50617,25034
6.50877,26249
6.51137,29233
6.51398,29833
6.51658,30310
6.51920,27610
6.52180,30066
6.52440,28241
6.52702,28774
6.52962,30511
6.53223,33203
6.53483,31571
6.53743,29923
6.54005,31104
6.54265,26613
6.54527,28559
6.54787,22196
6.55048,27400
6.55308,24667
6.55568,21759
6.55830,23168
6.56090,23191
6.56352,23925
6.56612,22205
6.56872,21412
6.57133,19841
6.57393,21557
6.57655,21333
6.57915,20291
6.58175,21912
6.58437,20479
6.58697,28014
6.58958,69879
6.59218,223737
6.59478,771120
6.59740,2304075
6.60000,5334857
6.60262,1.037132E+07
6.60522,1.666074E+07
6.60782,2.273487E+07
6.61043,2.773878E+07
6.61303,3.209155E+07
6.61565,3.592173E+07
6.61825,3.402659E+07
6.62085,2.304427E+07
6.62347,7288291
6.62607,1536675
6.62868,492818
6.63128,265807
6.63390,191087
6.63650,153144
6.63910,126081
6.64172,111604
6.64432,98962
6.64693,86473
6.64953,79718
6.65213,72044
6.65475,68270
6.65735,65580
6.65997,58624
6.66257,63854
6.66517,57081
6.66778,54934
6.67038,53845
6.67300,48718
6.67560,42645
6.67820,45410
6.68082,42156
6.68342,45075
6.68603,48413
6.68863,54689
6.69123,64029
6.69385,74765
6.69645,82259
6.69907,80256
6.70167,70201
6.70427,60394
6.70688,50213
6.70948,45840
6.71210,40311
6.71470,42307
6.71732,38291
6.71992,36962
6.72252,36184
6.72513,34794
6.72773,33114
6.73035,35622
6.73295,34762
6.73555,31587
6.73817,36878
6.74077,32447
6.74338,31418
6.74598,31075
6.74858,32920
6.75120,29467
6.75380,31437
6.75642,29106
6.75902,28389
6.76162,29070
6.76423,29372
6.76683,29853
6.76945,29086
6.77205,30742
6.77465,29648
6.77727,29047
6.77987,26949
6.78248,28651
6.78508,26528
6.78768,24103
6.79030,25719
6.79290,26483
6.79552,25679
6.79812,25694
6.80073,26553
6.80333,23876
6.80593,22036
6.80855,23140
6.81115,25907
6.81377,23951
6.81637,24354
6.81897,26341
6.82158,25352
6.82418,24920
6.82680,24895
6.82940,25057
6.83200,24460
6.83462,21512
6.83722,21978
6.83983,22049
6.84243,22889
6.84503,24228
6.84765,24334
6.85025,22246
6.85287,23266
6.85547,30454
6.85807,48899
6.86068,79185
6.86328,127206
6.86590,164537
6.86850,168927
6.87110,161724
6.87372,127644
6.87632,107663
6.87893,85468
6.88153,79565
6.88415,74381
6.88675,65862
6.88935,59550
6.89197,57754
6.89457,55234
6.89718,50240
6.89978,48710
6.90238,45823
6.90500,47548
6.90760,43866
6.91022,42186
6.91282,41399
6.91542,41765
6.91803,37857
6.92063,38501
6.92325,35640
6.92585,36662
6.92845,36069
6.93107,36737
6.93367,38866
6.93628,42096
6.93888,43998
6.94148,41019
6.94410,39856
6.94670,36010
6.94932,35692
6.95192,33654
6.95452,36875
6.95713,40073
6.95973,38837
6.96235,38193
6.96495,33960
6.96757,31842
6.97017,32038
6.97277,30925
6.97538,29474
6.97798,27197
6.98060,29568
6.98320,28511
6.98580,27286
6.98842,23939
6.99102,27389
6.99363,25370
6.99623,26227
6.99883,26249
7.00145,25826
7.00405,26129
7.00667,28462
7.00927,26969
7.01187,26063
7.01448,25604
7.01708,25250
7.01970,26745
7.02230,27378
7.02490,25869
7.02752,25023
7.03012,26657
7.03273,26437
7.03533,27451
7.03793,25834
7.04055,26379
7.04315,28059
7.04577,34099
7.04837,38312
7.05098,44706
7.05358,45531
7.05618,42520
7.05880,38271
7.06140,35704
7.06402,31071
7.06662,31472
7.06922,27232
7.07183,28884
7.07443,27543
7.07705,27388
7.07965,27731
7.08225,23508
7.08487,26248
7.08747,24022
7.09008,24678
7.09268,24001
7.09528,25842
7.09790,24553
7.10050,25412
7.10312,25858
7.10572,25168
7.10832,24952
7.11093,24867
7.11353,25304
7.11615,23297
7.11875,21626
7.12135,23262
7.12397,24706
7.12657,21703
7.12918,21225
7.13178,21968
7.13440,23163
7.13700,22776
7.13960,23511
7.14222,24863
7.14482,25163
7.14743,25461
7.15003,24673
7.15263,23306
7.15525,24001
7.15785,24083
7.16047,21425
7.16307,25860
7.16567,23382
7.16828,21048
7.17088,23950
7.17350,23564
7.17610,21999
7.17870,22806
7.18132,23637
7.18392,23194
7.18653,24286
7.18913,20928
7.19173,21261
7.19435,25175
7.19695,22482
7.19957,24097
7.20217,26847
7.20477,28974
7.20738,34889
7.20998,43717
7.21260,56904
7.21520,62692
7.21782,65467
7.22042,58425
7.22302,47873
7.22563,37971
7.22823,33717
7.23085,31359
7.23345,30155
7.23605,31187
7.23867,32120
7.24127,29009
7.24388,29464
7.24648,27740
7.24908,26949
7.25170,27790
7.25430,25423
7.25692,23300
7.25952,25611
7.26212,24601
7.26473,24932
7.26733,25665
7.26995,23825
7.27255,24469
7.27515,25130
7.27777,23424
7.28037,22959
7.28298,25034
7.28558,25310
7.28818,24664
7.29080,24971
7.29340,23278
7.29602,24068
7.29862,24563
7.30123,22674
7.30383,24724
7.30643,22054
7.30905,23647
7.31165,23437
7.31427,25864
7.31687,25909
7.31947,21952
7.32208,22497
7.32468,23235
7.32730,24607
7.32990,22182
7.33250,22516
7.33512,22867
7.33772,24613
7.34033,22917
7.34293,22905
7.34553,23221
7.34815,23513
7.35075,23601
7.35337,23809
7.35597,23898
7.35857,23629
7.36118,22359
7.36378,24173
7.36640,22519
7.36900,20974
7.37160,20675
7.37422,23022
7.37682,23338
7.37943,23292
7.38203,22463
7.38465,21466
7.38725,23726
7.38985,23927
7.39247,23052
7.39507,23714
7.39768,23567
7.40028,22590
7.40288,25223
7.40550,23601
7.40810,21848
7.41072,24575
7.41332,23726
7.41592,24633
7.41853,24360
7.42113,27206
7.42375,23647
7.42635,22867
7.42895,22359
7.43157,24526
7.43417,23365
7.43678,21407
7.43938,24197
7.44198,22591
7.44460,25171
7.44720,22620
7.44982,23759
7.45242,21959
7.45502,24745
7.45763,23918
7.46023,22706
7.46285,24456
7.46545,23228
7.46807,24678
7.47067,23049
7.47327,23272
7.47588,23817
7.47848,22383
7.48110,22891
7.48370,24677
7.48630,23011
7.48892,24889
7.49152,25076
7.49413,26313
7.49673,28059
7.49933,27567
7.50195,25966
7.50455,24900
7.50717,25935
7.50977,25991
7.51237,24450
7.51498,27642
7.51758,28660
7.52020,29603
7.52280,36412
7.52540,44046
7.52802,47442
7.53062,44246
7.53323,40608
7.53583,33066
7.53843,33704
7.54105,29411
7.54365,27974
7.54627,27524
7.54887,27928
7.55148,25342
7.55408,26725
7.55668,24629
7.55930,28122
7.56190,26020
7.56452,26199
7.56712,24796
7.56972,24133
7.57233,25674
7.57493,26855
7.57755,28720
7.58015,31490
7.58275,29714
7.58537,31578
7.58797,29295
7.59058,29062
7.59318,26822
7.59578,25460
7.59840,25478
7.60100,26790
7.60362,26614
7.60622,24822
7.60882,25582
7.61143,25596
7.61403,27488
7.61665,26438
7.61925,25055
7.62185,26488
7.62447,28195
7.62707,28279
7.62968,28790
7.63228,27545
7.63490,29139
7.63750,27714
7.64010,27360
7.64272,27416
7.64532,27762
7.64793,27789
7.65053,25396
7.65313,27042
7.65575,26978
7.65835,27525
7.66097,28682
7.66357,31386
7.66617,35093
7.66878,47601
7.67138,81781
7.67400,132017
7.67660,196533
7.67920,249258
7.68182,259549
7.68442,226096
7.68703,156421
7.68963,107477
7.69223,78441
7.69485,68693
7.69745,64775
7.70007,58818
7.70267,55591
7.70527,52540
7.70788,50955
7.71048,47007
7.71310,47499
7.71570,47574
7.71832,44066
7.72092,44584
7.72352,42991
7.72613,42484
7.72873,41275
7.73135,41860
7.73395,39696
7.73655,39506
7.73917,39434
7.74177,37908
7.74438,38817
7.74698,39085
7.74958,36615
7.75220,37615
7.75480,36548
7.75742,35610
7.76002,37826
7.76262,38007
7.76523,36979
7.76783,36222
7.77045,37650
7.77305,36485
7.77565,35624
7.77827,35519
7.78087,35043
7.78348,34509
7.78608,35898
7.78868,35836
7.79130,33160
7.79390,36754
7.79652,35715
7.79912,34743
7.80173,35604
7.80433,34228
7.80693,33234
7.80955,31396
7.81215,33068
7.81477,34415
7.81737,34809
7.81997,35288
7.82258,36914
7.82518,38205
7.82780,39973
7.83040,42410
7.83300,42232
7.83562,38472
7.83822,36485
7.84083,37360
7.84343,36425
7.84603,36675
7.84865,32347
7.85125,35261
7.85387,35464
7.85647,32844
7.85907,34002
7.86168,34926
7.86428,32774
7.86690,33291
7.86950,35053
7.87210,32624
7.87472,34606
7.87732,31077
7.87993,35768
7.88253,32257
7.88515,31635
7.88775,36050
7.89035,30950
7.89297,33073
7.89557,32527
7.89818,33106
7.90078,34308
7.90338,34893
7.90600,37242
7.90860,37087
7.91122,38904
7.91382,36410
7.91642,37144
7.91903,36117
7.92163,37943
7.92425,34879
7.92685,35315
7.92945,35524
7.93207,35503
7.93467,33287
7.93728,35689
7.93988,34540
7.94248,33232
7.94510,33107
7.94770,34510
7.95032,34838
7.95292,31684
7.95552,32697
7.95813,33207
7.96073,34429
7.96335,33376
7.96595,35110
7.96857,33372
7.97117,34596
7.97377,36401
7.97638,33157
7.97898,34761
7.98160,32846
7.98420,33577
7.98680,35799
7.98942,34400
7.99202,33009
7.99463,33671
7.99723,36813
7.99983,32742
8.00245,34065
8.00505,33835
8.00767,37582
8.01027,35529
8.01287,33721
8.01548,34217
8.01808,35204
8.02070,33256
8.02330,34408
8.02590,34931
8.02852,33435
8.03112,34451
8.03373,34321
8.03633,35711
8.03893,35010
8.04155,35348
8.04415,34124
8.04677,34014
8.04937,37493
8.05198,35029
8.05458,41380
8.05718,60270
8.05980,144032
8.06240,469731
8.06502,1532584
8.06762,4079511
8.07022,8227394
8.07283,1.308929E+07
8.07543,1.708879E+07
8.07805,1.929936E+07
8.08065,1.777138E+07
8.08325,1.241723E+07
8.08587,6552232
8.08847,3265397
8.09108,1845391
8.09368,1227790
8.09628,908828
8.09890,715466
8.10150,578320
8.10412,492321
8.10672,411768
8.10932,361882
8.11193,323763
8.11453,289393
8.11715,265956
8.11975,246124
8.12235,209906
8.12497,200163
8.12757,183815
8.13018,169568
8.13278,155222
8.13540,149654
8.13800,139045
8.14060,133202
8.14322,125246
8.14582,122099
8.14843,112688
8.15103,107078
8.15363,106492
8.15625,100560
8.15885,97766
8.16147,90798
8.16407,87118
8.16667,90735
8.16928,87203
8.17188,83508
8.17450,80246
8.17710,87824
8.17970,91248
8.18232,88849
8.18492,86349
8.18753,83127
8.19013,72813
8.19273,70968
8.19535,73105
8.19795,66366
8.20057,64104
8.20317,64820
8.20577,66365
8.20838,64609
8.21098,69085
8.21360,62719
8.21620,61835
8.21882,64554
8.22142,58532
8.22402,58251
8.22663,56924
8.22923,54966
8.23185,58371
8.23445,55709
8.23705,57326
8.23967,54526
8.24227,54241
8.24488,51572
8.24748,53930
8.25008,50073
8.25270,53424
8.25530,51769
8.25792,49298
8.26052,51181
8.26312,51112
8.26573,54226
8.26833,50338
8.27095,52605
8.27355,51480
8.27615,51393
8.27877,48256
8.28137,51665
8.28398,49078
8.28658,49961
8.28918,50700
8.29180,49090
8.29440,52030
8.29702,49847
8.29962,50777
8.30223,49839
8.30483,51799
8.30743,53720
8.31005,53300
8.31265,50863
8.31527,48405
8.31787,49131
8.32047,51677
8.32308,49889
8.32568,48147
8.32830,48433
8.33090,50570
8.33350,46973
8.33612,49797
8.33872,49784
8.34133,48463
8.34393,49119
8.34653,49538
8.34915,55272
8.35175,49684
8.35437,48428
8.35697,47488
8.35957,51518
8.36218,47246
8.36478,49128
8.36740,48061
8.37000,51380
8.37260,50045
8.37522,51196
8.37782,47681
8.38043,52846
8.38303,48886
8.38565,52268
8.38825,50787
8.39085,53099
8.39347,47086
8.39607,46428
8.39868,48988
8.40128,50571
8.40388,49523
8.40650,52106
8.40910,49127
8.41172,51289
8.41432,50504
8.41692,48923
8.41953,52324
8.42213,50916
8.42475,50275
8.42735,52778
8.42995,49827
8.43257,52716
8.43517,52338
8.43778,51775
8.44038,53193
8.44298,54091
8.44560,52348
8.44820,51271
8.45082,50029
8.45342,51971
8.45602,50121
8.45863,52913
8.46123,52823
8.46385,58441
8.46645,55806
8.46907,57847
8.47167,57461
8.47427,63544
8.47688,63991
8.47948,61565
8.48210,62261
8.48470,58911
8.48730,59012
8.48992,58950
8.49252,54622
8.49513,57111
8.49773,59789
8.50033,58850
8.50295,60879
8.50555,61510
8.50817,71904
8.51077,72459
8.51337,73600
8.51598,70877
8.51858,69980
8.52120,67462
8.52380,66295
8.52640,60793
8.52902,60480
8.53162,59766
8.53423,61749
8.53683,63805
8.53943,63286
8.54205,60763
8.54465,62645
8.54727,61678
8.54987,61856
8.55248,63018
8.55508,60686
8.55768,64281
8.56030,63440
8.56290,67451
8.56552,64184
8.56812,64166
8.57072,62980
8.57333,66850
8.57593,65534
8.57855,62750
8.58115,67418
8.58375,65876
8.58637,66044
8.58897,68633
8.59158,68706
8.59418,65410
8.59678,66272
8.59940,67458
8.60200,63533
8.60462,66153
8.60722,69088
8.60982,67758
8.61243,69456
8.61503,65206
8.61765,67649
8.62025,70305
8.62285,68937
8.62547,67658
8.62807,74027
8.63068,70943
8.63328,73958
8.63590,69997
8.63850,75163
8.64110,73647
8.64372,68445
8.64632,75373
8.64893,74605
8.65153,71815
8.65413,72932
8.65675,76930
8.65935,75538
8.66197,73619
8.66457,78327
8.66717,77392
8.66978,74936
8.67238,81277
8.67500,76237
8.67760,75166
8.68020,77794
8.68282,76756
8.68542,83959
8.68803,80442
8.69063,84680
8.69323,82670
8.69585,86059
8.69845,85604
8.70107,83099
8.70367,86097
8.70627,86799
8.70888,87546
8.71148,93506
8.71410,91192
8.71670,94782
8.71932,94527
8.72192,90462
8.72452,96467
8.72713,94300
8.72973,95243
8.73235,95667
8.73495,95427
8.73755,93733
8.74017,90085
8.74277,93077
8.74538,87337
8.74798,87979
8.75058,88963
8.75320,88460
8.75580,86771
8.75842,92051
8.76102,94986
8.76362,88427
8.76623,90280
8.76883,89322
8.77145,89640
8.77405,90120
8.77665,91282
8.77927,91035
8.78187,88400
8.78448,90886
8.78708,96256
8.78968,91834
8.79230,93163
8.79490,96860
8.79752,98029
8.80012,95726
8.80273,89376
8.80533,94829
8.80793,98511
8.81055,90981
8.81315,94065
8.81577,91295
8.81837,97395
8.82097,97457
8.82358,96792
8.82618,95357
8.82880,101543
8.83140,96443
8.83400,91370
8.83662,95728
8.83922,95635
8.84183,101945
8.84443,99318
8.84703,98520
8.84965,93071
8.85225,100061
8.85487,97307
8.85747,95253
8.86007,100582
8.86268,100055
8.86528,103658
8.86790,100097
8.87050,100418
8.87310,97250
8.87572,95888
8.87832,100717
8.88093,99169
8.88353,104583
8.88615,99342
8.88875,100668
8.89135,102733
8.89397,100821
8.89657,100869
8.89918,105161
8.90178,109313
8.90438,101615
8.90700,104895
8.90960,105408
8.91222,101654
8.91482,102594
8.91742,104509
8.92003,105498
8.92263,104774
8.92525,104062
8.92785,106766
8.93045,107846
8.93307,102920
8.93567,110292
8.93828,115682
8.94088,111643
8.94348,107397
8.94610,106673
8.94870,106199
8.95132,104046
8.95392,108781
8.95652,109152
8.95913,107151
8.96173,106885
8.96435,113335
8.96695,107490
8.96957,107495
8.97217,106753
8.97477,109131
8.97738,108112
8.97998,111039
8.98260,107512
8.98520,109536
8.98780,112691
8.99042,111898
8.99302,108394
8.99563,112961
8.99823,110208
9.00083,109747
9.00345,111845
9.00605,111257
9.00867,109006
9.01127,108927
9.01387,114706
9.01648,107544
9.01908,108802
9.02170,109160
9.02430,112904
9.02690,110232
9.02952,111112
9.03212,114563
9.03473,111918
9.03733,114206
9.03993,114034
9.04255,115596
9.04515,115381
9.04777,111903
9.05037,111438
9.05298,110988
9.05558,115692
9.05818,115533
9.06080,116873
9.06340,110214
9.06602,115982
9.06862,111588
9.07122,114350
9.07383,117339
9.07643,113660
9.07905,114819
9.08165,112292
9.08425,110879
9.08687,115734
9.08947,115573
9.09208,115705
9.09468,114584
9.09728,116779
9.09990,114189
9.10250,117819
9.10512,115675
9.10772,111092
9.11032,118215
9.11293,113626
9.11553,115699
9.11815,113802
9.12075,114538
9.12335,118536
9.12597,116723
9.12857,122416
9.13118,118222
9.13378,118717
9.13640,116220
9.13900,120308
9.14160,111541
9.14422,118425
9.14682,110356
9.14943,116239
9.15203,115542
9.15463,113814
9.15725,116028
9.15985,110826
9.16247,113435
9.16507,117496
9.16767,117051
9.17028,112836
9.17288,114793
9.17550,112707
9.17810,111831
9.18070,115797
9.18332,114393
9.18592,114316
9.18853,116497
9.19113,117840
9.19373,117752
9.19635,114876
9.19895,116102
9.20157,120062
9.20417,120719
9.20677,113310
9.20938,116606
9.21198,119707
9.21460,114448
9.21720,113611
9.21982,116204
9.22242,114517
9.22502,114183
9.22763,111275
9.23023,115322
9.23285,119582
9.23545,113260
9.23805,113487
9.24067,112051
9.24327,116119
9.24588,119897
9.24848,122562
9.25108,115849
9.25370,113057
9.25630,116866
9.25892,113927
9.26152,116497
9.26412,117333
9.26673,119005
9.26933,119547
9.27195,114163
9.27455,115146
9.27715,116196
9.27977,114799
9.28237,117546
9.28498,114879
9.28758,116915
9.29018,114706
9.29280,114335
9.29540,114402
9.29802,119359
9.30062,114597
9.30323,112921
9.30583,114330
9.30843,117699
9.31105,111549
9.31365,115131
9.31627,114141
9.31887,117296
9.32147,118509
9.32408,117332
9.32668,115659
9.32930,113997
9.33190,111683
9.33450,117267
9.33712,118470
9.33972,115616
9.34233,119081
9.34493,115037
9.34753,114790
9.35015,117474
9.35275,113273
9.35537,111016
9.35797,113773
9.36057,119833
9.36318,117480
9.36578,114995
9.36840,113216
9.37100,117005
9.37360,117483
9.37622,114696
9.37882,116023
9.38143,115506
9.38403,111986
9.38665,110916
9.38925,113201
9.39185,112526
9.39447,116980
9.39707,115543
9.39968,114054
9.40228,114615
9.40488,116491
9.40750,114204
9.41010,119699
9.41272,109770
9.41532,117158
9.41792,113000
9.42053,116328
9.42313,114082
9.42575,117900
9.42835,118489
9.43095,114662
9.43357,116076
9.43617,114658
9.43878,116242
9.44138,115994
9.44398,118659
9.44660,117359
9.44920,114602
9.45182,110519
9.45442,115168
9.45702,116900
9.45963,114423
9.46223,113523
9.46485,116831
9.46745,113663
9.47007,118233
9.47267,117373
9.47527,117329
9.47788,115281
9.48048,119863
9.48310,116046
9.48570,113509
9.48830,114253
9.49092,116211
9.49352,112122
9.49613,116006
9.49873,116014
9.50133,119190
9.50395,109811
9.50655,110490
9.50917,114906
9.51177,115385
9.51437,117102
9.51698,115025
9.51958,115086
9.52220,112167
9.52480,115490
9.52740,113384
9.53002,114906
9.53262,113763
9.53523,108812
9.53783,114695
9.54043,116475
9.54305,110455
9.54565,117305
9.54827,115844
9.55087,115990
9.55348,109226
9.55608,111325
9.55868,116059
9.56130,115737
9.56390,113987
9.56652,114437
9.56912,111695
9.57172,112578
9.57433,114007
9.57693,115063
9.57955,110942
9.58215,115202
9.58475,115032
9.58737,112665
9.58997,115219
9.59258,114224
9.59518,111676
9.59778,110736
9.60040,114119
9.60300,111628
9.60562,114624
9.60822,116708
9.61082,114802
9.61343,111458
9.61603,116409
9.61865,117816
9.62125,113811
9.62385,114137
9.62647,112459
9.62907,110321
9.63168,119308
9.63428,111899
9.63690,113007
9.63950,113530
9.64210,112621
9.64472,112810
9.64732,116956
9.64993,116660
9.65253,113041
9.65513,115939
9.65775,114210
9.66035,111768
9.66297,116045
9.66557,113613
9.66817,114925
9.67078,115651
9.67338,112966
9.67600,112794
9.67860,111991
9.68120,118495
9.68382,115076
9.68642,116727
9.68903,110655
9.69163,116071
9.69423,109130
9.69685,114166
9.69945,110349
9.70207,113211
9.70467,113907
9.70727,113601
9.70988,115958
9.71248,111816
9.71510,111826
9.71770,112664
9.72032,114340
9.72292,110434
9.72552,113562
9.72813,110682
9.73073,115448
9.73335,117897
9.73595,113022
9.73855,115129
9.74117,116064
9.74377,109811
9.74638,120190
9.74898,115248
9.75158,112041
9.75420,110930
9.75680,114270
9.75942,113618
9.76202,114487
9.76462,110010
9.76723,111541
9.76983,110970
9.77245,114827
9.77505,113480
9.77765,109857
9.78027,115589
9.78287,113689
9.78548,111918
9.78808,110972
9.79068,113900
9.79330,117532
9.79590,114913
9.79852,114460
9.80112,118342
9.80373,115146
9.80633,115266
9.80893,112959
9.81155,116330
9.81415,114329
9.81677,117613
9.81937,115663
9.82197,113192
9.82458,110765
9.82718,113841
9.82980,113346
9.83240,114497
9.83500,116171
9.83762,110552
9.84022,112726
9.84283,113505
9.84543,116044
9.84803,112935
9.85065,111830
9.85325,110682
9.85587,111927
9.85847,115670
9.86107,111693
9.86368,111995
9.86628,113170
9.86890,114485
9.87150,115856
9.87410,114852
9.87672,110860
9.87932,111888
9.88193,114457
9.88453,112405
9.88715,110532
9.88975,113099
9.89235,113775
9.89497,112971
9.89757,110695
9.90018,111745
9.90278,110623
9.90538,111460
9.90800,110817
9.91060,109997
9.91322,109785
9.91582,110992
9.91842,113413
9.92103,108735
9.92363,113339
9.92625,111167
9.92885,115035
9.93145,110080
9.93407,111117
9.93667,109541
9.93928,110152
9.94188,112811
9.94448,112337
9.94710,110637
9.94970,113215
9.95232,116265
9.95492,114700
9.95752,112204
9.96013,115047
9.96273,111602
9.96535,110611
9.96795,108724
9.97057,111299
9.97317,112007
9.97577,114793
9.97838,111229
9.98098,114558
9.98360,114052
9.98620,114889
9.98880,116932
9.99142,111938
9.99402,112364
9.99663,113826
9.99923,115598
10.00183,112950
10.00445,113851
10.00705,111218
10.00967,117781
10.01227,118239
10.01487,112370
10.01748,113074
10.02008,113410
10.02270,109566
10.02530,107792
10.02790,115664
10.03052,108156
10.03312,113334
10.03573,113960
10.03833,115415
10.04093,112553
10.04355,111959
10.04615,110375
10.04877,114752
10.05137,117427
10.05398,111941
10.05658,110584
10.05918,110899
10.06180,116296
10.06440,115868
10.06702,111204
10.06962,109559
10.07222,110836
10.07483,112120
10.07743,111294
10.08005,114711
10.08265,113316
10.08525,113929
10.08787,111902
10.09047,117552
10.09308,116026
10.09568,113570
10.09828,114351
10.10090,112989
10.10350,110396
10.10612,112238
10.10872,112709
10.11132,112203
10.11393,114227
10.11653,113265
10.11915,111290
10.12175,109906
10.12435,112449
10.12697,109343
10.12957,109889
10.13218,110460
10.13478,107400
10.13740,110033
10.14000,112518
10.14260,111605
10.14522,112092
10.14782,114755
10.15043,110870
10.15303,108302
10.15563,114669
10.15825,109881
10.16085,111289
10.16347,111482
10.16607,111615
10.16867,113462
10.17128,111589
10.17388,114506
10.17650,113150
10.17910,112015
10.18170,111251
10.18432,116621
10.18692,114681
10.18953,114232
10.19213,110480
10.19473,116433
10.19735,113542
10.19995,111695
10.20257,112011
10.20517,113201
10.20777,115406
10.21038,115526
10.21298,108659
10.21560,112278
10.21820,111759
10.22082,116409
10.22342,115837
10.22602,112728
10.22863,114959
10.23123,115199
10.23385,114820
10.23645,111549
10.23905,112566
10.24167,112865
10.24427,111316
10.24688,112287
10.24948,113088
10.25208,113053
10.25470,113396
10.25730,111759
10.25992,109678
10.26252,111816
10.26512,116885
10.26773,110321
10.27033,115792
10.27295,110623
10.27555,114231
10.27815,113197
10.28077,114135
10.28337,113149
10.28598,112662
10.28858,114790
10.29118,111293
10.29380,109614
10.29640,114943
10.29902,116044
10.30162,112012
10.30423,115520
10.30683,111144
10.30943,116811
10.31205,112604
10.31465,114874
10.31727,112014
10.31987,111179
10.32247,107876
10.32508,114918
10.32768,113458
10.33030,113608
10.33290,113244
10.33550,112754
10.33812,116286
10.34072,115785
10.34333,110488
10.34593,111490
10.34853,113061
10.35115,114395
10.35375,115925
10.35637,115668
10.35897,115888
10.36157,114020
10.36418,109480
10.36678,112239
10.36940,110562
10.37200,114735
10.37460,110915
10.37722,115122
10.37982,113631
10.38243,112418
10.38503,115939
10.38765,113494
10.39025,113092
10.39285,111568
10.39547,114296
10.39807,112422
10.40068,113396
10.40328,109281
10.40588,113547
10.40850,114084
10.41110,112883
10.41372,114033
10.41632,116486
10.41892,113571
10.42153,113721
10.42413,113717
10.42675,114063
10.42935,112671
10.43195,112470
10.43457,110776
10.43717,117472
10.43978,116833
10.44238,116823
10.44498,114303
10.44760,117940
10.45020,115053
10.45282,116915
10.45542,113478
10.45802,115772
10.46063,118738
10.46323,121588
10.46585,122725
10.46845,117024
10.47107,114301
10.47367,116824
10.47627,117909
10.47888,111382
10.48148,116453
10.48410,118103
10.48670,117916
10.48930,118795
10.49192,120459
10.49452,117691
10.49713,116722
10.49973,120136
10.50233,116698
10.50495,115995
10.50755,118853
10.51017,117395
10.51277,114549
10.51537,112596
10.51798,115831
10.52058,116617
10.52320,116462
10.52580,116620
10.52840,112991
10.53102,115125
10.53362,115229
10.53623,114647
10.53883,109243
10.54143,113687
10.54405,110427
10.54665,111117
10.54927,108269
10.55187,118479
10.55448,113311
10.55708,114806
10.55968,113876
10.56230,114479
10.56490,114948
10.56752,115803
10.57012,118785
10.57272,112273
10.57533,113137
10.57793,110189
10.58055,115190
10.58315,113644
10.58575,107229
10.58837,116563
10.59097,113160
10.59358,111210
10.59618,108652
10.59878,114348
10.60140,114303
10.60400,112234
10.60662,116458
10.60922,113224
10.61182,114236
10.61443,115397
10.61703,110822
10.61965,115098
10.62225,113202
10.62485,113453
10.62747,113652
10.63007,111390
10.63268,113136
10.63528,112107
10.63790,113377
10.64050,115913
10.64310,112716
10.64572,110592
10.64832,115740
10.65093,111701
10.65353,113513
10.65613,114404
10.65875,112102
10.66135,117113
10.66397,110341
