D:\data\overige2021\rk\20200201rk_cocacase28x\B039701.D Mon Feb 01 18:54:40 2021
Start of data points
1.58960,12989
1.59222,13274
1.59482,12509
1.59743,12584
1.60003,11610
1.60263,11318
1.60525,11970
1.60785,12783
1.61047,14845
1.61307,12280
1.61568,11289
1.61828,10935
1.62088,11565
1.62350,12330
1.62610,12087
1.62872,12800
1.63132,10607
1.63392,11082
1.63653,10900
1.63913,9852
1.64175,10344
1.64435,11393
1.64695,11007
1.64957,10452
1.65217,10635
1.65478,11102
1.65738,11326
1.65998,10410
1.66260,10954
1.66520,10315
1.66782,10137
1.67042,10387
1.67302,10234
1.67563,9404
1.67823,10401
1.68085,10291
1.68345,9200
1.68605,11230
1.68867,10833
1.69127,10497
1.69388,9092
1.69648,9538
1.69910,12118
1.70170,10267
1.70430,9175
1.70692,9849
1.70952,9875
1.71213,10339
1.71473,10427
1.71733,10456
1.71995,10012
1.72255,9084
1.72517,10123
1.72777,9424
1.73037,11117
1.73298,7943
1.73558,10961
1.73820,9854
1.74080,9143
1.74340,9644
1.74602,9933
1.74862,8265
1.75123,6989
1.75383,8182
1.75643,9534
1.75905,8634
1.76165,7454
1.76427,10105
1.76687,9093
1.76948,8314
1.77208,8191
1.77468,11116
1.77730,8206
1.77990,9974
1.78252,9008
1.78512,8589
1.78772,7851
1.79033,8742
1.79293,8452
1.79555,8993
1.79815,8339
1.80075,7537
1.80337,8529
1.80597,6580
1.80858,6789
1.81118,7365
1.81378,8865
1.81640,8068
1.81900,6972
1.82162,7248
1.82422,6960
1.82682,8872
1.82943,9050
1.83203,8034
1.83465,9183
1.83725,6821
1.83985,8611
1.84247,8112
1.84507,7244
1.84768,7348
1.85028,7738
1.85290,6490
1.85550,6741
1.85810,7318
1.86072,6896
1.86332,7100
1.86593,7902
1.86853,6629
1.87113,7413
1.87375,7178
1.87635,7581
1.87897,6643
1.88157,7426
1.88417,6499
1.88678,7247
1.88938,7427
1.89200,5424
1.89460,5770
1.89720,7690
1.89982,7515
1.90242,6350
1.90503,6188
1.90763,7164
1.91023,8058
1.91285,8011
1.91545,5420
1.91807,4610
1.92067,6846
1.92327,6954
1.92588,7358
1.92848,6125
1.93110,6212
1.93370,6772
1.93632,6530
1.93892,5325
1.94152,6605
1.94413,6286
1.94673,7053
1.94935,7153
1.95195,5709
1.95455,6018
1.95717,6616
1.95977,6826
1.96238,7240
1.96498,8531
1.96758,6291
1.97020,7576
1.97280,6715
1.97542,5358
1.97802,6114
1.98062,6256
1.98323,6174
1.98583,6009
1.98845,7295
1.99105,6376
1.99365,5841
1.99627,5436
1.99887,6011
2.00148,6527
2.00408,6343
2.00668,6484
2.00930,6207
2.01190,4639
2.01452,7042
2.01712,6683
2.01973,6994
2.02233,6771
2.02493,6089
2.02755,6816
2.03015,7199
2.03277,7243
2.03537,12060
2.03797,14888
2.04058,17363
2.04318,20666
2.04580,21872
2.04840,22727
2.05100,21735
2.05362,17832
2.05622,18334
2.05883,14713
2.06143,15030
2.06403,11735
2.06665,12183
2.06925,10822
2.07187,11923
2.07447,12620
2.07707,9240
2.07968,10575
2.08228,11171
2.08490,10913
2.08750,9739
2.09010,9883
2.09272,7632
2.09532,8759
2.09793,7834
2.10053,7796
2.10315,9334
2.10575,9119
2.10835,7836
2.11097,8651
2.11357,10227
2.11618,8483
2.11878,7491
2.12138,7469
2.12400,8710
2.12660,7744
2.12922,7895
2.13182,7322
2.13442,8918
2.13703,7789
2.13963,6727
2.14225,8286
2.14485,6888
2.14745,8368
2.15007,7887
2.15267,6877
2.15528,7851
2.15788,6060
2.16048,7482
2.16310,6828
2.16570,8209
2.16832,6852
2.17092,6451
2.17352,6051
2.17613,6712
2.17873,7880
2.18135,7384
2.18395,6716
2.18657,7327
2.18917,6694
2.19177,7144
2.19438,7353
2.19698,6182
2.19960,6702
2.20220,6700
2.20480,7608
2.20742,6145
2.21002,6939
2.21263,7340
2.21523,9055
2.21783,7419
2.22045,5112
2.22305,6444
2.22567,6703
2.22827,7698
2.23087,6283
2.23348,7150
2.23608,6799
2.23870,6359
2.24130,5909
2.24390,7630
2.24652,7087
2.24912,6544
2.25173,5980
2.25433,6005
2.25693,7442
2.25955,6286
2.26215,6854
2.26477,6514
2.26737,6629
2.26998,7724
2.27258,6543
2.27518,5664
2.27780,6382
2.28040,6228
2.28302,4537
2.28562,5969
2.28822,4814
2.29083,7159
2.29343,5662
2.29605,6584
2.29865,5864
2.30125,7503
2.30387,6455
2.30647,5741
2.30908,5614
2.31168,6349
2.31428,5929
2.31690,7228
2.31950,6168
2.32212,5485
2.32472,6614
2.32732,5719
2.32993,6970
2.33253,6155
2.33515,6701
2.33775,5887
2.34035,6566
2.34297,6346
2.34557,6469
2.34818,5941
2.35078,6003
2.35340,7561
2.35600,6123
2.35860,5421
2.36122,6159
2.36382,6969
2.36643,6064
2.36903,6403
2.37163,6128
2.37425,5708
2.37685,4628
2.37947,7715
2.38207,6109
2.38467,6059
2.38728,4918
2.38988,7509
2.39250,5182
2.39510,6784
2.39770,4301
2.40032,6047
2.40292,5669
2.40553,6237
2.40813,6844
2.41073,5893
2.41335,6650
2.41595,5571
2.41857,5660
2.42117,6021
2.42377,5349
2.42638,5600
2.42898,6577
2.43160,5531
2.43420,5662
2.43682,6438
2.43942,5532
2.44202,5710
2.44463,5317
2.44723,5231
2.44985,5890
2.45245,5590
2.45505,6880
2.45767,6199
2.46027,6377
2.46288,8139
2.46548,7698
2.46808,11023
2.47070,9786
2.47330,10837
2.47592,10258
2.47852,10670
2.48112,10649
2.48373,8677
2.48633,8965
2.48895,8712
2.49155,8524
2.49415,6803
2.49677,8489
2.49937,7800
2.50198,6678
2.50458,9241
2.50718,7181
2.50980,6779
2.51240,8360
2.51502,6298
2.51762,6720
2.52023,5890
2.52283,5841
2.52543,6991
2.52805,6998
2.53065,7001
2.53327,7159
2.53587,6884
2.53847,5984
2.54108,5932
2.54368,7280
2.54630,6801
2.54890,6712
2.55150,6467
2.55412,5349
2.55672,5880
2.55933,7089
2.56193,6112
2.56453,5976
2.56715,5590
2.56975,5272
2.57237,6294
2.57497,6738
2.57757,6100
2.58018,7270
2.58278,8396
2.58540,11155
2.58800,12369
2.59060,14744
2.59322,12629
2.59582,11398
2.59843,11757
2.60103,8654
2.60365,9349
2.60625,7185
2.60885,8008
2.61147,5972
2.61407,6212
2.61668,5521
2.61928,6675
2.62188,8209
2.62450,7780
2.62710,8055
2.62972,8691
2.63232,9753
2.63492,11079
2.63753,9370
2.64013,9080
2.64275,8451
2.64535,7854
2.64795,6205
2.65057,6900
2.65317,7067
2.65578,6756
2.65838,5604
2.66098,5639
2.66360,5074
2.66620,5754
2.66882,6965
2.67142,6683
2.67402,5017
2.67663,5153
2.67923,6544
2.68185,6265
2.68445,7033
2.68707,5815
2.68967,5538
2.69227,6681
2.69488,6252
2.69748,5573
2.70010,7024
2.70270,6104
2.70530,5502
2.70792,5768
2.71052,5723
2.71313,5307
2.71573,6293
2.71833,5079
2.72095,6524
2.72355,5905
2.72617,5696
2.72877,8035
2.73137,5935
2.73398,5699
2.73658,6126
2.73920,6611
2.74180,5797
2.74440,5097
2.74702,7222
2.74962,4721
2.75223,5419
2.75483,5974
2.75743,5997
2.76005,5852
2.76265,5949
2.76527,6809
2.76787,6239
2.77048,6014
2.77308,5737
2.77568,6076
2.77830,5136
2.78090,3992
2.78352,5921
2.78612,5839
2.78872,5196
2.79133,6048
2.79393,5230
2.79655,5248
2.79915,5110
2.80175,6559
2.80437,7116
2.80697,6042
2.80958,5790
2.81218,5159
2.81478,5848
2.81740,5816
2.82000,6141
2.82262,6896
2.82522,6116
2.82782,4076
2.83043,6739
2.83303,5569
2.83565,4927
2.83825,4595
2.84085,5475
2.84347,7453
2.84607,6223
2.84868,5945
2.85128,6027
2.85390,5881
2.85650,5465
2.85910,6955
2.86172,6538
2.86432,6984
2.86693,7395
2.86953,4920
2.87213,5609
2.87475,5996
2.87735,5761
2.87997,5885
2.88257,5839
2.88517,6667
2.88778,6630
2.89038,5280
2.89300,5695
2.89560,5594
2.89820,5559
2.90082,6390
2.90342,6066
2.90603,7089
2.90863,4961
2.91123,5140
2.91385,6641
2.91645,5332
2.91907,6315
2.92167,6070
2.92427,6732
2.92688,7198
2.92948,6268
2.93210,7091
2.93470,5243
2.93732,6533
2.93992,5585
2.94252,5554
2.94513,6882
2.94773,5805
2.95035,6549
2.95295,4893
2.95555,6468
2.95817,6821
2.96077,6547
2.96338,5776
2.96598,7361
2.96858,5737
2.97120,6158
2.97380,7317
2.97642,7470
2.97902,6736
2.98162,5457
2.98423,6943
2.98683,7041
2.98945,5613
2.99205,6940
2.99465,5641
2.99727,4563
2.99987,4850
3.00248,5594
3.00508,4541
3.00768,5187
3.01030,5454
3.01290,5160
3.01552,6005
3.01812,6123
3.02073,5303
3.02333,5653
3.02593,4802
3.02855,6623
3.03115,5324
3.03377,6102
3.03637,5894
3.03897,6657
3.04158,6829
3.04418,6109
3.04680,4923
3.04940,5471
3.05200,4830
3.05462,5761
3.05722,5507
3.05983,6055
3.06243,5324
3.06503,5330
3.06765,4774
3.07025,5109
3.07287,4937
3.07547,4688
3.07807,4658
3.08068,5257
3.08328,5175
3.08590,4553
3.08850,5340
3.09110,5546
3.09372,5116
3.09632,4989
3.09893,5535
3.10153,5578
3.10415,4518
3.10675,5165
3.10935,5520
3.11197,5179
3.11457,5848
3.11718,5960
3.11978,5931
3.12238,5058
3.12500,5362
3.12760,5977
3.13022,6370
3.13282,6199
3.13542,5722
3.13803,7358
3.14063,7992
3.14325,8413
3.14585,10656
3.14845,10397
3.15107,11698
3.15367,12132
3.15628,12931
3.15888,12009
3.16148,11893
3.16410,11994
3.16670,13271
3.16932,11486
3.17192,12082
3.17452,12722
3.17713,13546
3.17973,12076
3.18235,12859
3.18495,11421
3.18757,12579
3.19017,13011
3.19277,12502
3.19538,11687
3.19798,12333
3.20060,11210
3.20320,11151
3.20580,10508
3.20842,10415
3.21102,10621
3.21363,11247
3.21623,11040
3.21883,12717
3.22145,10556
3.22405,10394
3.22667,11237
3.22927,9628
3.23187,10192
3.23448,11260
3.23708,11239
3.23970,9616
3.24230,10418
3.24490,10051
3.24752,9786
3.25012,10368
3.25273,9958
3.25533,10666
3.25793,10540
3.26055,10574
3.26315,9401
3.26577,10075
3.26837,10342
3.27098,9803
3.27358,8268
3.27618,8854
3.27880,8592
3.28140,9182
3.28402,9362
3.28662,9600
3.28922,10438
3.29183,8563
3.29443,9881
3.29705,9802
3.29965,8987
3.30225,11067
3.30487,8977
3.30747,8007
3.31008,8372
3.31268,10769
3.31528,9672
3.31790,8664
3.32050,8920
3.32312,9369
3.32572,9905
3.32832,9286
3.33093,7980
3.33353,8940
3.33615,8987
3.33875,7771
3.34135,8529
3.34397,8349
3.34657,7047
3.34918,7748
3.35178,7790
3.35440,7746
3.35700,9257
3.35960,7957
3.36222,6629
3.36482,7047
3.36743,7140
3.37003,7269
3.37263,8805
3.37525,7687
3.37785,7744
3.38047,8319
3.38307,7115
3.38567,7718
3.38828,6525
3.39088,7125
3.39350,8110
3.39610,7161
3.39870,8419
3.40132,7677
3.40392,8008
3.40653,8405
3.40913,8891
3.41173,8274
3.41435,9070
3.41695,8445
3.41957,8643
3.42217,8448
3.42477,7893
3.42738,7903
3.42998,8427
3.43260,9067
3.43520,8233
3.43782,8882
3.44042,7509
3.44302,8308
3.44563,8073
3.44823,7736
3.45085,6977
3.45345,8698
3.45605,8347
3.45867,9124
3.46127,8140
3.46388,8409
3.46648,8519
3.46908,8225
3.47170,7925
3.47430,6769
3.47692,9153
3.47952,7285
3.48212,8579
3.48473,9967
3.48733,7480
3.48995,8906
3.49255,8160
3.49515,7940
3.49777,8139
3.50037,8732
3.50298,9581
3.50558,8772
3.50818,8597
3.51080,17070
3.51340,38223
3.51602,104047
3.51862,197284
3.52123,285776
3.52383,343675
3.52643,316972
3.52905,233155
3.53165,156143
3.53427,93451
3.53687,59598
3.53947,43480
3.54208,33871
3.54468,31303
3.54730,27724
3.54990,25284
3.55250,22252
3.55512,20299
3.55772,19633
3.56033,17946
3.56293,17649
3.56553,18653
3.56815,17631
3.57075,15777
3.57337,17040
3.57597,15253
3.57857,14865
3.58118,14236
3.58378,14084
3.58640,14548
3.58900,15966
3.59160,17499
3.59422,17697
3.59682,18393
3.59943,17751
3.60203,16622
3.60465,15244
3.60725,16361
3.60985,16017
3.61247,16319
3.61507,15595
3.61768,14406
3.62028,15623
3.62288,14959
3.62550,13215
3.62810,15334
3.63072,14876
3.63332,14677
3.63592,15328
3.63853,17541
3.64113,17607
3.64375,17249
3.64635,17255
3.64895,16855
3.65157,16185
3.65417,14805
3.65678,15654
3.65938,15303
3.66198,14572
3.66460,15814
3.66720,14668
3.66982,15240
3.67242,13694
3.67502,13995
3.67763,15271
3.68023,15586
3.68285,14456
3.68545,13315
3.68807,12531
3.69067,12825
3.69327,13966
3.69588,13909
3.69848,14366
3.70110,12332
3.70370,12997
3.70630,13345
3.70892,10678
3.71152,12388
3.71413,13868
3.71673,13199
3.71933,12264
3.72195,12052
3.72455,12089
3.72717,12241
3.72977,11451
3.73237,13135
3.73498,13280
3.73758,11019
3.74020,12705
3.74280,12762
3.74540,12537
3.74802,11559
3.75062,11240
3.75323,11896
3.75583,13296
3.75843,12449
3.76105,11313
3.76365,10832
3.76627,11424
3.76887,11473
3.77148,9708
3.77408,10237
3.77668,11559
3.77930,9190
3.78190,11932
3.78452,12099
3.78712,11933
3.78972,9969
3.79233,10772
3.79493,11656
3.79755,10462
3.80015,11042
3.80275,9929
3.80537,10123
3.80797,10468
3.81058,11657
3.81318,11861
3.81578,11496
3.81840,10814
3.82100,11245
3.82362,11520
3.82622,11554
3.82882,10858
3.83143,12842
3.83403,12177
3.83665,14167
3.83925,17342
3.84185,20445
3.84447,21858
3.84707,19905
3.84968,18422
3.85228,16942
3.85490,16350
3.85750,15294
3.86010,15075
3.86272,13621
3.86532,12786
3.86793,14790
3.87053,13982
3.87313,13243
3.87575,12057
3.87835,12478
3.88097,12181
3.88357,14468
3.88617,13109
3.88878,13271
3.89138,11986
3.89400,12185
3.89660,13904
3.89920,13352
3.90182,10226
3.90442,13151
3.90703,11947
3.90963,13229
3.91223,13111
3.91485,12305
3.91745,11451
3.92007,11923
3.92267,13206
3.92527,15094
3.92788,17822
3.93048,24563
3.93310,32670
3.93570,46868
3.93832,48396
3.94092,47289
3.94352,39239
3.94613,31620
3.94873,29534
3.95135,23502
3.95395,18633
3.95655,17982
3.95917,17522
3.96177,17916
3.96438,15443
3.96698,14590
3.96958,15207
3.97220,15822
3.97480,14584
3.97742,14133
3.98002,14049
3.98262,12852
3.98523,13144
3.98783,13831
3.99045,14284
3.99305,13494
3.99565,13316
3.99827,12111
4.00087,14325
4.00348,13722
4.00608,12562
4.00868,12857
4.01130,12260
4.01390,13037
4.01652,12444
4.01912,12455
4.02173,14011
4.02433,11887
4.02693,13099
4.02955,12128
4.03215,12487
4.03477,11371
4.03737,11873
4.03997,12231
4.04258,12591
4.04518,12706
4.04780,12668
4.05040,12571
4.05300,13486
4.05562,12544
4.05822,12265
4.06083,11817
4.06343,12010
4.06603,11183
4.06865,11227
4.07125,11458
4.07387,12321
4.07647,12565
4.07907,12418
4.08168,12771
4.08428,11664
4.08690,11916
4.08950,13978
4.09210,10288
4.09472,12556
4.09732,10636
4.09993,10815
4.10253,10447
4.10515,12639
4.10775,10857
4.11035,11170
4.11297,11885
4.11557,11447
4.11818,10870
4.12078,9909
4.12338,10482
4.12600,12397
4.12860,11846
4.13122,12469
4.13382,12998
4.13642,12303
4.13903,12296
4.14163,12932
4.14425,10699
4.14685,10853
4.14945,11438
4.15207,9720
4.15467,10786
4.15728,12297
4.15988,12094
4.16248,11076
4.16510,11008
4.16770,13299
4.17032,10582
4.17292,12785
4.17552,11721
4.17813,10740
4.18073,11271
4.18335,11386
4.18595,11236
4.18857,11730
4.19117,10052
4.19377,11385
4.19638,11725
4.19898,10304
4.20160,9251
4.20420,12755
4.20680,10900
4.20942,11563
4.21202,11708
4.21463,9569
4.21723,11666
4.21983,11078
4.22245,11664
4.22505,10889
4.22767,11032
4.23027,10730
4.23287,10212
4.23548,10866
4.23808,10196
4.24070,11869
4.24330,10941
4.24590,11201
4.24852,12665
4.25112,8941
4.25373,9717
4.25633,12347
4.25893,8809
4.26155,10555
4.26415,9293
4.26677,9766
4.26937,11632
4.27198,10252
4.27458,11791
4.27718,11157
4.27980,9700
4.28240,10260
4.28502,12016
4.28762,11112
4.29022,9873
4.29283,8979
4.29543,9933
4.29805,10335
4.30065,10032
4.30325,10918
4.30587,11099
4.30847,11970
4.31108,11467
4.31368,10321
4.31628,9577
4.31890,9565
4.32150,11204
4.32412,9361
4.32672,9861
4.32932,10816
4.33193,8929
4.33453,9987
4.33715,10900
4.33975,12145
4.34235,10392
4.34497,10682
4.34757,10149
4.35018,9255
4.35278,7933
4.35540,10939
4.35800,13422
4.36060,10997
4.36322,9259
4.36582,10669
4.36843,10695
4.37103,10289
4.37363,9640
4.37625,8984
4.37885,9777
4.38147,9641
4.38407,9848
4.38667,10629
4.38928,9961
4.39188,11892
4.39450,10466
4.39710,9300
4.39970,9684
4.40232,12962
4.40492,14038
4.40753,14891
4.41013,15518
4.41273,13919
4.41535,14060
4.41795,13529
4.42057,11018
4.42317,11013
4.42577,12801
4.42838,11400
4.43098,11780
4.43360,13383
4.43620,10268
4.43882,11316
4.44142,10673
4.44402,12140
4.44663,12117
4.44923,11045
4.45185,12048
4.45445,10906
4.45705,10789
4.45967,10405
4.46227,11119
4.46488,10813
4.46748,9552
4.47008,9952
4.47270,8710
4.47530,11709
4.47792,9994
4.48052,9727
4.48312,11780
4.48573,11570
4.48833,11413
4.49095,9421
4.49355,10395
4.49615,9484
4.49877,9849
4.50137,9773
4.50398,11034
4.50658,8496
4.50918,11236
4.51180,10293
4.51440,9825
4.51702,10133
4.51962,9535
4.52223,9528
4.52483,9713
4.52743,8998
4.53005,11483
4.53265,10537
4.53527,10454
4.53787,11359
4.54047,10572
4.54308,8055
4.54568,9998
4.54830,9093
4.55090,10504
4.55350,9832
4.55612,11037
4.55872,9718
4.56133,10463
4.56393,9876
4.56653,10050
4.56915,9412
4.57175,9878
4.57437,10581
4.57697,9479
4.57957,9289
4.58218,9906
4.58478,8295
4.58740,9570
4.59000,11562
4.59260,9954
4.59522,10868
4.59782,9864
4.60043,11145
4.60303,9309
4.60565,9483
4.60825,10933
4.61085,9717
4.61347,10207
4.61607,9957
4.61868,10043
4.62128,10388
4.62388,8937
4.62650,10523
4.62910,9800
4.63172,8990
4.63432,8979
4.63692,10506
4.63953,10887
4.64213,11572
4.64475,8886
4.64735,9710
4.64995,9232
4.65257,10356
4.65517,11087
4.65778,8928
4.66038,9078
4.66298,9812
4.66560,9882
4.66820,8899
4.67082,9751
4.67342,8480
4.67602,9047
4.67863,8463
4.68123,10069
4.68385,7629
4.68645,10159
4.68907,10698
4.69167,9394
4.69427,8649
4.69688,11055
4.69948,11307
4.70210,11293
4.70470,10877
4.70730,9449
4.70992,9088
4.71252,10337
4.71513,10030
4.71773,10288
4.72033,9567
4.72295,10814
4.72555,9821
4.72817,9949
4.73077,9398
4.73337,10572
4.73598,10730
4.73858,10776
4.74120,8374
4.74380,10586
4.74640,10055
4.74902,9624
4.75162,10596
4.75423,10235
4.75683,11188
4.75943,9579
4.76205,9759
4.76465,8087
4.76727,10963
4.76987,10076
4.77248,9274
4.77508,8835
4.77768,9747
4.78030,9624
4.78290,10612
4.78552,10344
4.78812,9910
4.79072,9829
4.79333,9852
4.79593,9986
4.79855,11317
4.80115,10292
4.80375,10014
4.80637,10525
4.80897,10266
4.81158,10021
4.81418,10218
4.81678,8938
4.81940,9921
4.82200,9077
4.82462,12216
4.82722,9558
4.82982,10041
4.83243,9292
4.83503,10575
4.83765,9922
4.84025,11123
4.84285,10529
4.84547,11459
4.84807,11000
4.85068,11084
4.85328,9592
4.85590,11942
4.85850,9868
4.86110,10987
4.86372,10386
4.86632,10730
4.86893,9093
4.87153,10858
4.87413,10953
4.87675,8967
4.87935,9245
4.88197,9771
4.88457,10146
4.88717,12665
4.88978,11608
4.89238,10410
4.89500,13356
4.89760,10739
4.90020,12095
4.90282,10048
4.90542,10965
4.90803,12598
4.91063,11902
4.91323,9488
4.91585,11141
4.91845,9864
4.92107,10532
4.92367,9834
4.92627,9675
4.92888,8858
4.93148,10776
4.93410,8845
4.93670,10322
4.93932,9122
4.94192,10039
4.94452,10791
4.94713,10189
4.94973,8626
4.95235,9798
4.95495,9821
4.95755,11162
4.96017,11551
4.96277,9881
4.96538,10343
4.96798,9098
4.97058,11212
4.97320,9206
4.97580,11221
4.97842,9342
4.98102,8999
4.98362,8946
4.98623,10939
4.98883,7879
4.99145,9415
4.99405,10050
4.99665,10211
4.99927,9281
5.00187,9033
5.00448,9808
5.00708,11159
5.00968,9002
5.01230,11660
5.01490,10199
5.01752,9183
5.02012,9898
5.02273,10517
5.02533,9958
5.02793,9423
5.03055,9837
5.03315,8474
5.03577,9318
5.03837,9789
5.04097,10618
5.04358,10567
5.04618,10092
5.04880,10283
5.05140,7892
5.05400,9569
5.05662,10575
5.05922,9194
5.06183,10656
5.06443,10220
5.06703,10464
5.06965,9321
5.07225,10222
5.07487,10807
5.07747,9752
5.08007,10217
5.08268,11911
5.08528,10330
5.08790,8989
5.09050,8930
5.09310,11914
5.09572,11584
5.09832,12814
5.10093,14710
5.10353,14300
5.10615,12852
5.10875,12159
5.11135,11193
5.11397,11860
5.11657,12211
5.11918,10921
5.12178,10175
5.12438,11011
5.12700,9568
5.12960,11226
5.13222,9524
5.13482,11021
5.13742,10204
5.14003,10127
5.14263,10896
5.14525,10062
5.14785,8255
5.15045,11115
5.15307,9819
5.15567,10809
5.15828,12338
5.16088,10637
5.16348,10947
5.16610,10817
5.16870,9348
5.17132,9486
5.17392,9929
5.17652,9529
5.17913,9961
5.18173,9683
5.18435,10519
5.18695,9469
5.18957,10551
5.19217,10442
5.19477,10750
5.19738,10854
5.19998,10090
5.20260,10573
5.20520,11276
5.20780,12296
5.21042,11845
5.21302,10671
5.21563,9728
5.21823,12114
5.22083,10434
5.22345,9681
5.22605,11803
5.22867,11638
5.23127,10896
5.23387,9166
5.23648,10685
5.23908,10177
5.24170,10521
5.24430,10233
5.24690,10798
5.24952,9381
5.25212,10419
5.25473,10998
5.25733,12017
5.25993,9352
5.26255,10101
5.26515,9531
5.26777,10421
5.27037,10190
5.27298,9556
5.27558,9843
5.27818,10501
5.28080,10416
5.28340,10613
5.28602,9350
5.28862,11413
5.29122,10693
5.29383,10775
5.29643,10333
5.29905,12113
5.30165,10462
5.30425,9846
5.30687,10061
5.30947,10008
5.31208,9765
5.31468,8947
5.31728,9985
5.31990,10386
5.32250,10787
5.32512,9986
5.32772,10249
5.33032,10883
5.33293,10681
5.33553,10238
5.33815,10357
5.34075,10166
5.34335,10226
5.34597,11458
5.34857,10977
5.35118,9197
5.35378,9387
5.35640,11733
5.35900,9903
5.36160,10965
5.36422,9840
5.36682,11780
5.36943,9043
5.37203,9370
5.37463,9989
5.37725,10143
5.37985,11227
5.38247,11390
5.38507,10814
5.38767,10307
5.39028,10936
5.39288,11299
5.39550,9564
5.39810,11581
5.40070,12333
5.40332,10766
5.40592,8809
5.40853,11072
5.41113,10518
5.41373,10305
5.41635,11494
5.41895,12103
5.42157,10988
5.42417,10378
5.42677,12781
5.42938,11491
5.43198,11875
5.43460,10686
5.43720,9195
5.43982,9954
5.44242,9816
5.44502,13223
5.44763,11623
5.45023,9394
5.45285,11119
5.45545,11932
5.45805,15321
5.46067,15278
5.46327,13751
5.46588,13277
5.46848,12784
5.47108,11757
5.47370,12437
5.47630,11352
5.47892,9597
5.48152,10667
5.48412,10879
5.48673,9894
5.48933,10874
5.49195,10012
5.49455,10725
5.49715,10880
5.49977,11490
5.50237,10748
5.50498,10016
5.50758,8347
5.51018,9469
5.51280,11224
5.51540,9311
5.51802,10579
5.52062,10242
5.52323,10643
5.52583,11493
5.52843,13202
5.53105,11721
5.53365,10969
5.53627,11574
5.53887,11128
5.54147,12440
5.54408,12104
5.54668,12216
5.54930,11998
5.55190,11079
5.55450,12084
5.55712,11636
5.55972,11883
5.56233,11696
5.56493,11409
5.56753,10567
5.57015,13458
5.57275,11225
5.57537,12775
5.57797,8507
5.58057,11162
5.58318,9958
5.58578,12365
5.58840,10882
5.59100,10493
5.59360,12389
5.59622,12149
5.59882,12257
5.60143,12488
5.60403,10906
5.60665,12243
5.60925,10395
5.61185,10033
5.61447,11226
5.61707,11616
5.61968,11854
5.62228,11139
5.62488,9311
5.62750,10518
5.63010,12340
5.63272,11729
5.63532,10079
5.63792,11183
5.64053,11002
5.64313,9961
5.64575,10461
5.64835,9975
5.65095,10051
5.65357,11346
5.65617,10815
5.65878,11474
5.66138,10455
5.66398,11706
5.66660,11196
5.66920,10736
5.67182,9713
5.67442,10435
5.67702,9908
5.67963,10605
5.68223,10937
5.68485,11099
5.68745,9506
5.69007,10934
5.69267,9581
5.69527,11405
5.69788,10848
5.70048,12396
5.70310,12460
5.70570,12090
5.70830,12741
5.71092,11494
5.71352,11873
5.71613,10517
5.71873,12645
5.72133,11363
5.72395,10231
5.72655,9422
5.72917,11995
5.73177,10506
5.73437,11276
5.73698,11696
5.73958,11977
5.74220,11528
5.74480,10326
5.74740,10958
5.75002,9409
5.75262,10520
5.75523,11013
5.75783,12005
5.76043,10490
5.76305,10208
5.76565,10508
5.76827,10778
5.77087,10865
5.77348,11598
5.77608,9778
5.77868,11287
5.78130,10950
5.78390,12133
5.78652,12025
5.78912,11378
5.79172,12443
5.79433,11861
5.79693,12886
5.79955,11440
5.80215,13203
5.80475,12483
5.80737,11892
5.80997,15072
5.81258,25938
5.81518,54036
5.81778,104232
5.82040,162922
5.82300,212940
5.82562,206725
5.82822,169640
5.83082,110692
5.83343,63912
5.83603,41104
5.83865,33269
5.84125,29638
5.84385,31147
5.84647,29280
5.84907,26671
5.85168,19917
5.85428,15420
5.85690,15692
5.85950,14889
5.86210,16846
5.86472,13843
5.86732,15018
5.86993,18407
5.87253,47349
5.87513,133406
5.87775,340181
5.88035,754972
5.88297,1441327
5.88557,2112991
5.88817,2268114
5.89078,1932354
5.89338,1351894
5.89600,819976
5.89860,482383
5.90120,308241
5.90382,213783
5.90642,166688
5.90903,140451
5.91163,113620
5.91423,100889
5.91685,90235
5.91945,81912
5.92207,75514
5.92467,70848
5.92727,66190
5.92988,64734
5.93248,61198
5.93510,56411
5.93770,55478
5.94032,54847
5.94292,50594
5.94552,50089
5.94813,45848
5.95073,42879
5.95335,41600
5.95595,38697
5.95855,34784
5.96117,36065
5.96377,33572
5.96638,36160
5.96898,33387
5.97158,32158
5.97420,32493
5.97680,33620
5.97942,30384
5.98202,31739
5.98462,32376
5.98723,33045
5.98983,30978
5.99245,29911
5.99505,32982
5.99765,29750
6.00027,28900
6.00287,29272
6.00548,25719
6.00808,26159
6.01068,26315
6.01330,24363
6.01590,25630
6.01852,24326
6.02112,25027
6.02373,24212
6.02633,23676
6.02893,21442
6.03155,22888
6.03415,22798
6.03677,22283
6.03937,23323
6.04197,22845
6.04458,24122
6.04718,23395
6.04980,25354
6.05240,27292
6.05500,29851
6.05762,25424
6.06022,26294
6.06283,28676
6.06543,25075
6.06803,24667
6.07065,24871
6.07325,22353
6.07587,23700
6.07847,22236
6.08107,21583
6.08368,22347
6.08628,20539
6.08890,22935
6.09150,19874
6.09410,20973
6.09672,19681
6.09932,22400
6.10193,22157
6.10453,20627
6.10715,19737
6.10975,21974
6.11235,20570
6.11497,19508
6.11757,21258
6.12018,18586
6.12278,18015
6.12538,15764
6.12800,21221
6.13060,17791
6.13322,19132
6.13582,18965
6.13842,18892
6.14103,16324
6.14363,17944
6.14625,18814
6.14885,17521
6.15145,18799
6.15407,16493
6.15667,16238
6.15928,19167
6.16188,17119
6.16448,15740
6.16710,14662
6.16970,16566
6.17232,16700
6.17492,19516
6.17752,17107
6.18013,16400
6.18273,16327
6.18535,18475
6.18795,18645
6.19057,17872
6.19317,17186
6.19577,16876
6.19838,15588
6.20098,16064
6.20360,14680
6.20620,17521
6.20880,15693
6.21142,17652
6.21402,18125
6.21663,15127
6.21923,15619
6.22183,15297
6.22445,17758
6.22705,17051
6.22967,16455
6.23227,18124
6.23487,15093
6.23748,15813
6.24008,15814
6.24270,16188
6.24530,16569
6.24790,15126
6.25052,15248
6.25312,16908
6.25573,14143
6.25833,17300
6.26093,15293
6.26355,16522
6.26615,14543
6.26877,15287
6.27137,15726
6.27398,15385
6.27658,16185
6.27918,15521
6.28180,15305
6.28440,15078
6.28702,14938
6.28962,13192
6.29222,13368
6.29483,14991
6.29743,14380
6.30005,15485
6.30265,15909
6.30525,13319
6.30787,16222
6.31047,14979
6.31308,14824
6.31568,14321
6.31828,12828
6.32090,14157
6.32350,15443
6.32612,14665
6.32872,13998
6.33132,13737
6.33393,13314
6.33653,13598
6.33915,14750
6.34175,14812
6.34435,14033
6.34697,14395
6.34957,13922
6.35218,15373
6.35478,16442
6.35740,14377
6.36000,14000
6.36260,13227
6.36522,14423
6.36782,14458
6.37043,12306
6.37303,12801
6.37563,13197
6.37825,13831
6.38085,14912
6.38347,14048
6.38607,15897
6.38867,15983
6.39128,15974
6.39388,14951
6.39650,16207
6.39910,14127
6.40170,15448
6.40432,16401
6.40692,16426
6.40953,16654
6.41213,15213
6.41473,14937
6.41735,17626
6.41995,13191
6.42257,15074
6.42517,14548
6.42777,15587
6.43038,16286
6.43298,13801
6.43560,14813
6.43820,13994
6.44082,14657
6.44342,13887
6.44602,14376
6.44863,12263
6.45123,13096
6.45385,15037
6.45645,12989
6.45905,16356
6.46167,14312
6.46427,14208
6.46688,13571
6.46948,16069
6.47208,14806
6.47470,15671
6.47730,12950
6.47992,15056
6.48252,14244
6.48512,13178
6.48773,15952
6.49033,15383
6.49295,15781
6.49555,14626
6.49815,16930
6.50077,16923
6.50337,20996
6.50598,20407
6.50858,20093
6.51118,22687
6.51380,23941
6.51640,20536
6.51902,21275
6.52162,22890
6.52423,22578
6.52683,23838
6.52943,25426
6.53205,28254
6.53465,29740
6.53727,24988
6.53987,24824
6.54247,22575
6.54508,19562
6.54768,21511
6.55030,21457
6.55290,22113
6.55550,18343
6.55812,19408
6.56072,15622
6.56333,15547
6.56593,16909
6.56853,19102
6.57115,17007
6.57375,17209
6.57637,17761
6.57897,19328
6.58157,19137
6.58418,18503
6.58678,28204
6.58940,64218
6.59200,207866
6.59460,726329
6.59722,2187298
6.59982,5260883
6.60243,9596801
6.60503,1.482784E+07
6.60765,2.076845E+07
6.61025,2.575578E+07
6.61285,2.950409E+07
6.61547,3.000827E+07
6.61807,2.229475E+07
6.62068,9393839
6.62328,2346986
6.62588,638003
6.62850,291744
6.63110,187793
6.63372,146278
6.63632,122579
6.63892,99761
6.64153,89318
6.64413,80298
6.64675,71718
6.64935,64951
6.65195,62421
6.65457,59317
6.65717,56795
6.65978,53983
6.66238,49219
6.66498,45050
6.66760,45925
6.67020,44159
6.67282,42438
6.67542,38541
6.67802,39289
6.68063,38715
6.68323,41885
6.68585,44107
6.68845,50553
6.69107,57672
6.69367,62620
6.69627,64014
6.69888,60611
6.70148,50593
6.70410,50450
6.70670,40346
6.70930,39354
6.71192,36373
6.71452,34783
6.71713,33027
6.71973,34514
6.72233,30364
6.72495,31149
6.72755,30375
6.73017,29138
6.73277,29408
6.73537,29122
6.73798,31424
6.74058,28933
6.74320,28465
6.74580,26576
6.74840,26929
6.75102,29495
6.75362,28705
6.75623,24983
6.75883,25899
6.76143,28142
6.76405,29017
6.76665,28454
6.76927,28871
6.77187,26804
6.77448,27678
6.77708,25417
6.77968,23880
6.78230,22274
6.78490,23771
6.78752,22716
6.79012,24131
6.79272,25390
6.79533,23244
6.79793,22550
6.80055,20096
6.80315,20892
6.80575,23135
6.80837,21976
6.81097,24906
6.81358,21790
6.81618,21115
6.81878,22088
6.82140,20977
6.82400,20830
6.82662,22385
6.82922,21630
6.83182,21500
6.83443,20536
6.83703,20082
6.83965,21587
6.84225,21484
6.84485,20245
6.84747,21147
6.85007,21465
6.85268,22310
6.85528,27691
6.85790,44091
6.86050,68749
6.86310,110432
6.86572,143194
6.86832,150894
6.87093,139488
6.87353,106545
6.87613,81582
6.87875,71430
6.88135,58429
6.88397,54030
6.88657,48794
6.88917,48692
6.89178,42051
6.89438,43587
6.89700,39389
6.89960,36846
6.90220,38244
6.90482,36649
6.90742,37344
6.91003,35600
6.91263,33334
6.91523,32249
6.91785,31550
6.92045,29975
6.92307,29722
6.92567,28898
6.92827,27578
6.93088,30829
6.93348,31480
6.93610,36023
6.93870,35326
6.94132,35097
6.94392,31319
6.94652,28944
6.94913,29065
6.95173,31624
6.95435,31012
6.95695,33286
6.95955,34120
6.96217,28655
6.96477,29162
6.96738,26864
6.96998,26205
6.97258,25523
6.97520,24876
6.97780,23255
6.98042,24624
6.98302,24587
6.98562,24166
6.98823,22982
6.99083,20848
6.99345,24487
6.99605,24118
6.99865,25131
7.00127,22542
7.00387,22965
7.00648,23025
7.00908,24777
7.01168,22807
7.01430,25574
7.01690,21473
7.01952,24176
7.02212,23336
7.02473,22998
7.02733,22746
7.02993,20570
7.03255,22875
7.03515,22354
7.03777,21981
7.04037,21720
7.04297,25299
7.04558,29460
7.04818,35013
7.05080,40017
7.05340,42455
7.05600,36196
7.05862,32744
7.06122,30221
7.06383,28846
7.06643,24957
7.06903,26159
7.07165,24302
7.07425,27837
7.07687,24422
7.07947,24997
7.08207,23168
7.08468,23604
7.08728,23580
7.08990,21307
7.09250,22812
7.09510,21114
7.09772,22597
7.10032,22465
7.10293,22491
7.10553,22893
7.10815,22207
7.11075,23071
7.11335,22248
7.11597,20838
7.11857,23689
7.12118,21617
7.12378,22575
7.12638,24293
7.12900,22880
7.13160,20715
7.13422,19150
7.13682,20756
7.13942,19417
7.14203,21479
7.14463,21640
7.14725,22656
7.14985,21054
7.15245,22140
7.15507,22599
7.15767,23464
7.16028,22206
7.16288,20710
7.16548,19681
7.16810,20586
7.17070,19984
7.17332,22928
7.17592,21155
7.17852,21928
7.18113,19112
7.18373,23509
7.18635,21144
7.18895,20931
7.19157,19545
7.19417,20426
7.19677,21521
7.19938,22966
7.20198,21950
7.20460,25689
7.20720,32529
7.20980,42332
7.21242,53312
7.21502,55159
7.21763,57553
7.22023,45802
7.22283,36961
7.22545,33773
7.22805,27900
7.23067,28421
7.23327,26295
7.23587,23207
7.23848,23457
7.24108,25977
7.24370,25148
7.24630,25982
7.24890,25650
7.25152,22344
7.25412,23088
7.25673,22309
7.25933,22937
7.26193,24225
7.26455,24147
7.26715,20723
7.26977,20590
7.27237,22070
7.27498,21574
7.27758,19174
7.28018,21516
7.28280,23404
7.28540,21910
7.28802,23921
7.29062,22145
7.29322,23853
7.29583,22840
7.29843,24162
7.30105,22266
7.30365,20996
7.30625,22421
7.30887,21632
7.31147,22543
7.31408,21367
7.31668,19736
7.31928,20263
7.32190,19740
7.32450,20937
7.32712,22451
7.32972,20549
7.33232,22316
7.33493,19623
7.33753,22792
7.34015,20477
7.34275,20718
7.34535,18392
7.34797,18198
7.35057,20891
7.35318,22684
7.35578,23670
7.35840,23094
7.36100,22169
7.36360,21837
7.36622,23265
7.36882,22642
7.37143,22957
7.37403,19814
7.37663,20785
7.37925,22537
7.38185,21470
7.38447,21105
7.38707,21381
7.38967,22512
7.39228,21152
7.39488,20250
7.39750,20834
7.40010,22791
7.40270,23308
7.40532,24510
7.40792,22624
7.41053,22793
7.41313,22336
7.41573,21604
7.41835,22405
7.42095,21189
7.42357,22401
7.42617,22580
7.42877,21731
7.43138,21536
7.43398,22674
7.43660,20603
7.43920,21246
7.44182,22854
7.44442,22627
7.44702,21230
7.44963,21898
7.45223,21378
7.45485,19933
7.45745,21621
7.46005,22810
7.46267,18911
7.46527,23217
7.46788,22865
7.47048,22911
7.47308,24010
7.47570,21865
7.47830,23043
7.48092,21265
7.48352,22866
7.48612,23874
7.48873,22692
7.49133,24666
7.49395,24958
7.49655,25160
7.49915,24564
7.50177,23865
7.50437,23560
7.50698,22587
7.50958,24495
7.51220,25138
7.51480,24319
7.51740,23361
7.52002,28223
7.52262,30639
7.52523,34760
7.52783,36686
7.53043,34423
7.53305,34557
7.53565,30296
7.53827,28240
7.54087,21531
7.54347,26119
7.54608,26387
7.54868,24386
7.55130,23493
7.55390,25130
7.55650,21353
7.55912,22217
7.56172,24044
7.56433,22521
7.56693,23470
7.56953,22943
7.57215,23250
7.57475,26077
7.57737,23299
7.57997,27519
7.58257,25137
7.58518,27173
7.58778,26122
7.59040,26305
7.59300,25445
7.59562,23052
7.59822,25046
7.60082,22043
7.60343,23307
7.60603,25001
7.60865,23655
7.61125,22786
7.61385,25497
7.61647,25645
7.61907,25682
7.62168,24693
7.62428,25664
7.62688,25021
7.62950,24681
7.63210,25104
7.63472,26913
7.63732,25450
7.63992,24044
7.64253,24289
7.64513,23882
7.64775,27096
7.65035,25198
7.65295,25014
7.65557,24604
7.65817,23148
7.66078,24599
7.66338,27936
7.66598,29568
7.66860,43250
7.67120,60311
7.67382,84380
7.67642,124298
7.67903,145438
7.68163,145688
7.68423,122278
7.68685,83826
7.68945,63480
7.69207,53172
7.69467,45220
7.69727,42044
7.69988,42587
7.70248,38698
7.70510,39529
7.70770,36714
7.71030,33396
7.71292,36840
7.71552,36198
7.71813,38202
7.72073,36181
7.72333,34775
7.72595,32472
7.72855,32064
7.73117,35016
7.73377,31204
7.73637,32338
7.73898,30362
7.74158,31213
7.74420,33462
7.74680,30511
7.74940,31996
7.75202,31662
7.75462,32296
7.75723,33009
7.75983,35312
7.76245,30508
7.76505,31180
7.76765,29610
7.77027,30616
7.77287,29773
7.77548,29893
7.77808,33289
7.78068,32531
7.78330,28717
7.78590,30490
7.78852,29712
7.79112,30212
7.79372,30120
7.79633,29996
7.79893,29248
7.80155,28902
7.80415,28956
7.80675,30861
7.80937,27518
7.81197,32729
7.81458,30709
7.81718,30154
7.81978,29688
7.82240,31001
7.82500,33881
7.82762,36683
7.83022,33726
7.83282,33628
7.83543,33122
7.83803,30500
7.84065,33409
7.84325,30660
7.84587,30623
7.84847,30932
7.85107,29190
7.85368,30552
7.85628,31574
7.85890,29965
7.86150,27151
7.86410,30254
7.86672,28500
7.86932,31169
7.87193,29329
7.87453,26922
7.87713,28653
7.87975,30605
7.88235,29555
7.88497,30085
7.88757,29310
7.89017,29773
7.89278,28559
7.89538,30431
7.89800,29554
7.90060,29220
7.90320,34361
7.90582,30542
7.90842,32545
7.91103,31845
7.91363,30509
7.91623,33334
7.91885,29842
7.92145,33608
7.92407,33630
7.92667,30027
7.92928,30857
7.93188,31253
7.93448,29720
7.93710,31370
7.93970,29543
7.94232,32251
7.94492,31948
7.94752,29383
7.95013,30298
7.95273,31125
7.95535,30315
7.95795,29312
7.96055,30566
7.96317,32635
7.96577,30686
7.96838,30258
7.97098,32953
7.97358,31431
7.97620,29910
7.97880,30436
7.98142,30957
7.98402,32559
7.98662,32036
7.98923,30451
7.99183,30305
7.99445,31040
7.99705,30515
7.99965,31763
8.00227,33938
8.00487,30695
8.00748,35827
8.01008,30362
8.01270,33065
8.01530,33587
8.01790,31806
8.02052,33065
8.02312,33908
8.02573,32851
8.02833,30576
8.03093,31635
8.03355,33012
8.03615,31748
8.03877,31826
8.04137,32302
8.04397,29694
8.04658,31760
8.04918,31453
8.05180,33186
8.05440,37610
8.05700,53826
8.05962,116601
8.06222,371111
8.06483,1277827
8.06743,3453083
8.07003,7273786
8.07265,1.188313E+07
8.07525,1.528529E+07
8.07787,1.670721E+07
8.08047,1.407297E+07
8.08307,9336870
8.08568,4863378
8.08828,2505850
8.09090,1445763
8.09350,1033067
8.09612,778895
8.09872,613496
8.10132,514284
8.10393,415847
8.10653,361931
8.10915,322626
8.11175,283754
8.11435,253647
8.11697,226319
8.11957,212306
8.12218,189063
8.12478,171168
8.12738,158074
8.13000,150522
8.13260,134399
8.13522,133932
8.13782,127407
8.14042,116967
8.14303,109060
8.14563,104061
8.14825,107063
8.15085,96435
8.15345,90034
8.15607,89232
8.15867,83452
8.16128,84228
8.16388,83039
8.16648,80227
8.16910,80065
8.17170,76449
8.17432,74882
8.17692,78091
8.17953,85519
8.18213,82492
8.18473,75259
8.18735,71974
8.18995,68550
8.19257,67216
8.19517,63131
8.19777,62910
8.20038,59181
8.20298,59827
8.20560,59853
8.20820,60785
8.21080,59336
8.21342,56964
8.21602,55462
8.21863,53867
8.22123,52116
8.22383,50975
8.22645,53820
8.22905,53918
8.23167,51849
8.23427,50979
8.23687,49398
8.23948,49002
8.24208,52799
8.24470,49478
8.24730,50852
8.24990,51069
8.25252,54049
8.25512,46791
8.25773,47308
8.26033,46207
8.26295,46921
8.26555,45375
8.26815,49257
8.27077,47419
8.27337,47137
8.27598,46970
8.27858,47422
8.28118,47441
8.28380,45692
8.28640,47552
8.28902,44484
8.29162,46055
8.29422,47184
8.29683,48933
8.29943,48156
8.30205,47499
8.30465,50791
8.30725,46234
8.30987,46741
8.31247,49170
8.31508,46902
8.31768,46066
8.32028,46550
8.32290,45762
8.32550,47977
8.32812,45870
8.33072,48566
8.33332,47252
8.33593,50433
8.33853,47793
8.34115,43172
8.34375,45097
8.34637,47821
8.34897,46380
8.35157,47135
8.35418,47489
8.35678,45555
8.35940,46905
8.36200,47539
8.36460,49208
8.36722,48097
8.36982,46936
8.37243,47909
8.37503,47195
8.37763,46463
8.38025,47123
8.38285,46176
8.38547,49124
8.38807,48250
8.39067,47888
8.39328,47329
8.39588,49430
8.39850,47670
8.40110,48379
8.40370,46278
8.40632,47534
8.40892,49304
8.41153,49579
8.41413,50570
8.41673,52821
8.41935,47948
8.42195,48791
8.42457,51185
8.42717,52281
8.42978,49951
8.43238,50318
8.43498,50480
8.43760,52257
8.44020,50871
8.44282,49840
8.44542,53260
8.44802,51694
8.45063,51197
8.45323,52735
8.45585,52377
8.45845,49553
8.46105,52671
8.46367,51359
8.46627,52225
8.46888,52168
8.47148,53769
8.47408,58078
8.47670,55964
8.47930,56850
8.48192,55892
8.48452,55155
8.48712,54141
8.48973,56804
8.49233,55752
8.49495,55518
8.49755,56589
8.50015,56195
8.50277,57832
8.50537,56632
8.50798,62234
8.51058,69701
8.51320,68552
8.51580,65804
8.51840,62890
8.52102,60791
8.52362,61142
8.52623,58170
8.52883,59648
8.53143,58341
8.53405,59233
8.53665,58431
8.53927,57088
8.54187,61402
8.54447,61970
8.54708,60471
8.54968,60781
8.55230,58619
8.55490,61908
8.55750,61271
8.56012,60781
8.56272,62207
8.56533,61134
8.56793,60799
8.57053,62141
8.57315,59828
8.57575,62436
8.57837,64026
8.58097,64258
8.58357,60787
8.58618,62252
8.58878,65865
8.59140,66202
8.59400,64183
8.59662,66614
8.59922,59922
8.60182,66537
8.60443,66729
8.60703,67470
8.60965,67800
8.61225,66903
8.61485,67148
8.61747,67738
8.62007,66798
8.62268,65994
8.62528,66877
8.62788,69776
8.63050,71528
8.63310,73034
8.63572,66867
8.63832,70184
8.64092,69241
8.64353,70289
8.64613,71172
8.64875,70729
8.65135,69752
8.65395,68686
8.65657,74449
8.65917,75014
8.66178,76237
8.66438,73650
8.66698,74388
8.66960,74935
8.67220,73613
8.67482,73792
8.67742,74345
8.68003,74251
8.68263,77136
8.68523,77247
8.68785,80684
8.69045,79030
8.69307,84764
8.69567,81627
8.69827,79399
8.70088,81636
8.70348,84669
8.70610,79471
8.70870,85943
8.71130,84671
8.71392,88495
8.71652,88605
8.71913,90112
8.72173,90019
8.72433,86215
8.72695,93295
8.72955,86525
8.73217,87582
8.73477,90935
8.73737,86519
8.73998,89786
8.74258,89910
8.74520,87467
8.74780,89760
8.75040,87041
8.75302,87998
8.75562,88925
8.75823,84722
8.76083,85391
8.76345,88895
8.76605,89074
8.76865,86484
8.77127,85867
8.77387,87418
8.77648,90562
8.77908,91367
8.78168,88752
8.78430,93330
8.78690,89642
8.78952,90522
8.79212,93922
8.79472,92871
8.79733,88032
8.79993,88816
8.80255,89912
8.80515,89630
8.80775,95799
8.81037,90178
8.81297,88699
8.81558,95555
8.81818,90051
8.82078,92580
8.82340,94173
8.82600,95217
8.82862,94768
8.83122,91577
8.83382,90451
8.83643,96970
8.83903,95869
8.84165,92543
8.84425,95021
8.84687,95880
8.84947,100808
8.85207,96248
8.85468,95413
8.85728,97751
8.85990,96155
8.86250,95798
8.86510,97662
8.86772,98225
8.87032,96867
8.87293,93008
8.87553,95802
8.87813,94734
8.88075,99007
8.88335,102122
8.88597,101136
8.88857,101671
8.89117,100086
8.89378,103072
8.89638,104291
8.89900,105447
8.90160,100184
8.90420,100526
8.90682,98992
8.90942,97578
8.91203,101507
8.91463,100371
8.91723,101363
8.91985,102138
8.92245,103091
8.92507,105287
8.92767,102376
8.93028,107746
8.93288,109844
8.93548,102026
8.93810,105032
8.94070,105333
8.94332,101302
8.94592,105621
8.94852,104433
8.95113,108746
8.95373,107080
8.95635,102486
8.95895,100004
8.96155,106455
8.96417,104948
8.96677,109657
8.96938,105313
8.97198,103882
8.97458,106069
8.97720,109316
8.97980,104144
8.98242,106024
8.98502,107235
8.98762,109974
8.99023,109161
8.99283,105672
8.99545,110238
8.99805,109343
9.00065,109978
9.00327,101969
9.00587,103833
9.00848,108706
9.01108,111755
9.01370,109547
9.01630,109814
9.01890,109900
9.02152,110166
9.02412,109341
9.02673,108415
9.02933,110397
9.03193,108372
9.03455,108446
9.03715,108696
9.03977,111707
9.04237,109582
9.04497,109047
9.04758,110066
9.05018,110485
9.05280,109966
9.05540,113738
9.05800,109928
9.06062,109733
9.06322,108185
9.06583,107254
9.06843,108974
9.07103,108759
9.07365,111562
9.07625,111470
9.07887,109389
9.08147,111269
9.08407,113899
9.08668,113983
9.08928,107707
9.09190,116825
9.09450,111802
9.09712,110493
9.09972,111918
9.10232,109585
9.10493,112716
9.10753,112570
9.11015,108671
9.11275,109742
9.11535,108767
9.11797,111540
9.12057,115716
9.12318,114978
9.12578,117387
9.12838,111977
9.13100,116236
9.13360,113854
9.13622,112057
9.13882,113965
9.14142,110133
9.14403,112897
9.14663,114688
9.14925,112718
9.15185,112361
9.15445,111473
9.15707,112928
9.15967,111836
9.16228,109839
9.16488,118230
9.16748,113718
9.17010,115706
9.17270,110259
9.17532,109223
9.17792,110175
9.18053,113682
9.18313,112998
9.18573,117158
9.18835,112210
9.19095,112737
9.19357,109543
9.19617,116456
9.19877,113433
9.20138,116764
9.20398,115052
9.20660,114865
9.20920,107687
9.21180,115381
9.21442,111160
9.21702,116442
9.21963,111639
9.22223,111472
9.22483,116333
9.22745,116137
9.23005,110881
9.23267,109602
9.23527,115662
9.23787,110700
9.24048,109484
9.24308,111317
9.24570,114959
9.24830,111708
9.25090,114754
9.25352,110606
9.25612,112720
9.25873,112626
9.26133,111974
9.26395,110118
9.26655,110506
9.26915,111615
9.27177,116254
9.27437,110163
9.27698,109855
9.27958,109659
9.28218,114142
9.28480,111914
9.28740,112052
9.29002,110996
9.29262,116612
9.29522,115357
9.29783,111203
9.30043,113583
9.30305,113004
9.30565,113665
9.30825,114730
9.31087,115519
9.31347,115678
9.31608,110576
9.31868,113196
9.32128,114219
9.32390,114804
9.32650,113442
9.32912,117516
9.33172,114223
9.33432,116457
9.33693,113349
9.33953,116878
9.34215,113360
9.34475,110798
9.34737,115206
9.34997,117183
9.35257,111182
9.35518,108424
9.35778,116070
9.36040,116094
9.36300,115023
9.36560,114582
9.36822,111848
9.37082,111390
9.37343,118334
9.37603,114738
9.37863,111227
9.38125,112884
9.38385,112217
9.38647,110276
9.38907,118870
9.39167,114458
9.39428,114067
9.39688,109287
9.39950,112522
9.40210,112583
9.40470,110717
9.40732,112617
9.40992,112653
9.41253,110255
9.41513,110376
9.41773,114167
9.42035,112520
9.42295,107707
9.42557,113436
9.42817,114225
9.43078,111451
9.43338,111044
9.43598,114552
9.43860,112779
9.44120,113271
9.44382,115265
9.44642,111100
9.44902,112207
9.45163,115320
9.45423,109296
9.45685,115029
9.45945,111277
9.46205,115380
9.46467,113491
9.46727,115930
9.46988,116870
9.47248,116179
9.47508,112632
9.47770,112656
9.48030,111280
9.48292,115721
9.48552,112624
9.48812,115508
9.49073,118777
9.49333,111577
9.49595,114689
9.49855,112239
9.50115,112171
9.50377,114199
9.50637,110375
9.50898,112955
9.51158,114838
9.51420,114087
9.51680,115580
9.51940,112104
9.52202,109602
9.52462,110317
9.52723,115924
9.52983,113628
9.53243,113068
9.53505,114180
9.53765,113841
9.54027,112389
9.54287,112013
9.54547,108840
9.54808,114752
9.55068,115259
9.55330,111526
9.55590,114916
9.55850,108868
9.56112,113702
9.56372,111480
9.56633,110401
9.56893,110105
9.57153,112799
9.57415,111937
9.57675,114645
9.57937,111274
9.58197,112767
9.58457,107350
9.58718,112098
9.58978,108705
9.59240,113534
9.59500,109122
9.59762,111693
9.60022,111699
9.60282,110934
9.60543,111931
9.60803,111782
9.61065,112347
9.61325,107984
9.61585,110283
9.61847,114178
9.62107,107545
9.62368,113144
9.62628,115964
9.62888,110721
9.63150,113624
9.63410,112598
9.63672,111661
9.63932,117551
9.64192,111960
9.64453,113734
9.64713,112329
9.64975,116281
9.65235,115191
9.65495,112592
9.65757,110975
9.66017,109272
9.66278,115183
9.66538,113493
9.66798,113945
9.67060,114155
9.67320,113173
9.67582,111802
9.67842,109833
9.68103,110445
9.68363,116491
9.68623,114308
9.68885,116481
9.69145,109996
9.69407,107688
9.69667,111618
9.69927,112874
9.70188,112442
9.70448,114799
9.70710,116000
9.70970,110602
9.71230,113934
9.71492,115764
9.71752,110921
9.72013,113704
9.72273,111753
9.72533,114128
9.72795,115107
9.73055,113767
9.73317,109213
9.73577,110670
9.73837,108713
9.74098,108958
9.74358,112361
9.74620,112298
9.74880,111216
9.75140,109618
9.75402,108124
9.75662,113415
9.75923,111536
9.76183,114733
9.76445,111227
9.76705,111840
9.76965,111285
9.77227,113411
9.77487,112623
9.77748,111308
9.78008,115777
9.78268,113447
9.78530,111700
9.78790,111508
9.79052,117545
9.79312,113293
9.79572,108171
9.79833,112588
9.80093,113884
9.80355,117630
9.80615,115578
9.80875,111005
9.81137,116911
9.81397,112843
9.81658,111824
9.81918,109468
9.82178,111923
9.82440,113081
9.82700,113453
9.82962,111652
9.83222,110963
9.83482,113104
9.83743,113437
9.84003,114299
9.84265,107758
9.84525,110168
9.84787,113714
9.85047,112094
9.85307,107949
9.85568,109889
9.85828,107176
9.86090,114125
9.86350,112576
9.86610,113839
9.86872,112132
9.87132,112459
9.87393,109337
9.87653,110640
9.87913,109195
9.88175,109896
9.88435,111436
9.88697,111811
9.88957,113955
9.89217,112778
9.89478,110123
9.89738,109441
9.90000,113712
9.90260,110079
9.90520,114580
9.90782,110621
9.91042,114419
9.91303,111986
9.91563,112474
9.91823,110567
9.92085,112991
9.92345,113232
9.92607,112122
9.92867,112855
9.93128,109620
9.93388,110606
9.93648,112993
9.93910,113982
9.94170,109806
9.94432,108883
9.94692,107523
9.94952,112521
9.95213,110146
9.95473,113744
9.95735,110505
9.95995,111778
9.96255,115786
9.96517,111609
9.96777,110390
9.97038,111221
9.97298,114429
9.97558,111786
9.97820,111742
9.98080,112968
9.98342,112915
9.98602,114519
9.98862,110906
9.99123,113334
9.99383,111576
9.99645,111181
9.99905,112222
10.00165,113438
10.00427,109738
10.00687,113749
10.00948,110020
10.01208,111363
10.01470,114225
10.01730,113464
10.01990,109942
10.02252,109035
10.02512,110599
10.02773,115584
10.03033,115450
10.03293,118390
10.03555,116425
10.03815,112779
10.04077,113173
10.04337,114383
10.04597,110863
10.04858,110651
10.05118,112509
10.05380,112884
10.05640,111953
10.05900,114884
10.06162,116514
10.06422,117709
10.06683,115590
10.06943,111215
10.07203,111761
10.07465,117900
10.07725,117702
10.07987,113804
10.08247,118605
10.08507,113593
10.08768,114014
10.09028,115823
10.09290,118329
10.09550,116285
10.09812,113857
10.10072,115903
10.10332,116731
10.10593,116455
10.10853,117053
10.11115,116969
10.11375,115729
10.11635,117427
10.11897,112824
10.12157,113133
10.12418,119502
10.12678,114698
10.12938,114134
10.13200,116031
10.13460,113260
10.13722,112116
10.13982,115720
10.14242,116787
10.14503,115098
10.14763,111150
10.15025,113302
10.15285,113986
10.15545,113001
10.15807,108212
10.16067,114806
10.16328,113090
10.16588,110862
10.16848,113468
10.17110,115106
10.17370,110784
10.17632,114623
10.17892,115267
10.18153,111004
10.18413,108091
10.18673,111028
10.18935,112761
10.19195,112945
10.19457,106127
10.19717,112150
10.19977,112192
10.20238,111892
10.20498,112867
10.20760,109844
10.21020,112053
10.21280,113557
10.21542,110831
10.21802,109540
10.22063,114074
10.22323,116562
10.22583,118554
10.22845,111652
10.23105,111993
10.23367,109858
10.23627,112256
10.23887,110370
10.24148,109534
10.24408,110956
10.24670,112952
10.24930,116981
10.25190,116908
10.25452,109824
10.25712,111734
10.25973,110254
10.26233,113872
10.26495,109518
10.26755,112305
10.27015,116131
10.27277,109428
10.27537,109821
10.27798,109882
10.28058,109102
10.28318,110267
10.28580,113693
10.28840,113071
10.29102,113942
10.29362,109644
10.29622,111282
10.29883,110276
10.30143,110322
10.30405,111931
10.30665,107964
10.30925,112258
10.31187,113441
10.31447,113733
10.31708,112066
10.31968,113898
10.32228,111228
10.32490,112940
10.32750,112475
10.33012,113245
10.33272,113780
10.33532,114996
10.33793,114539
10.34053,109046
10.34315,112005
10.34575,110646
10.34837,112672
10.35097,111448
10.35357,109274
10.35618,108730
10.35878,111673
10.36140,109579
10.36400,111852
10.36660,111726
10.36922,111240
10.37182,110656
10.37443,114336
10.37703,110124
10.37963,108679
10.38225,112371
10.38485,108773
10.38747,110410
10.39007,114541
10.39267,112425
10.39528,114892
10.39788,112900
10.40050,114309
10.40310,115429
10.40570,111928
10.40832,114531
10.41092,111469
10.41353,111756
10.41613,116202
10.41873,115208
10.42135,115146
10.42395,112732
10.42657,113955
10.42917,113038
10.43178,115211
10.43438,114925
10.43698,117974
10.43960,114079
10.44220,121912
10.44482,114566
10.44742,119201
10.45002,118739
10.45263,116485
10.45523,120586
10.45785,118628
10.46045,123910
10.46305,123520
10.46567,124267
10.46827,124306
10.47088,122832
10.47348,128068
10.47608,124218
10.47870,126842
10.48130,121986
10.48392,125039
10.48652,128075
10.48912,125326
10.49173,123305
10.49433,124123
10.49695,126850
10.49955,129839
10.50215,127396
10.50477,127311
10.50737,126830
10.50998,125329
10.51258,122337
10.51520,126547
10.51780,124680
10.52040,124451
10.52302,122605
10.52562,121985
10.52823,123426
10.53083,123279
10.53343,123477
10.53605,122824
10.53865,126619
10.54127,123023
10.54387,118361
10.54647,115311
10.54908,118713
10.55168,119590
10.55430,115705
10.55690,119780
10.55950,115306
10.56212,115138
10.56472,115217
10.56733,116873
10.56993,117278
10.57253,116069
10.57515,116879
10.57775,119268
10.58037,118553
10.58297,117183
10.58557,113936
10.58818,121538
10.59078,108984
10.59340,116198
10.59600,117854
10.59862,116548
10.60122,113789
10.60382,119486
10.60643,116828
10.60903,113157
10.61165,115928
10.61425,113547
10.61685,114517
10.61947,112280
10.62207,114600
10.62468,110339
10.62728,112866
10.62988,115796
10.63250,116267
10.63510,111557
10.63772,113343
10.64032,115724
10.64292,114033
10.64553,113690
10.64813,116764
10.65075,120250
10.65335,113246
10.65595,115740
10.65857,117133
10.66117,114286
10.66378,111414
