D:\data\overige2021\rk\20200201rk_cocacase28x\B039740.D Mon Feb 01 22:31:37 2021
Start of data points
1.58967,11154
1.59227,10357
1.59488,8864
1.59748,11056
1.60010,9821
1.60270,10713
1.60530,10313
1.60792,11477
1.61052,8999
1.61313,9886
1.61573,7985
1.61833,8996
1.62095,9314
1.62355,8870
1.62617,9594
1.62877,9540
1.63137,9877
1.63398,10239
1.63658,9170
1.63920,7425
1.64180,9139
1.64440,9031
1.64702,9800
1.64962,8160
1.65223,9443
1.65483,9217
1.65743,9656
1.66005,10467
1.66265,11741
1.66527,9334
1.66787,9311
1.67048,8956
1.67308,7915
1.67568,8118
1.67830,9292
1.68090,9005
1.68352,8947
1.68612,8419
1.68872,8753
1.69133,8521
1.69393,9297
1.69655,9076
1.69915,10614
1.70175,9424
1.70437,9933
1.70697,7505
1.70958,8766
1.71218,9761
1.71478,7357
1.71740,7789
1.72000,7976
1.72262,7447
1.72522,7811
1.72782,7673
1.73043,7281
1.73303,8739
1.73565,7794
1.73825,6769
1.74085,7231
1.74347,8137
1.74607,8274
1.74868,7449
1.75128,8623
1.75390,8637
1.75650,7712
1.75910,7357
1.76172,6960
1.76432,6924
1.76693,5974
1.76953,7609
1.77213,7132
1.77475,7033
1.77735,6904
1.77997,6976
1.78257,6625
1.78517,7968
1.78778,8335
1.79038,7060
1.79300,7131
1.79560,7289
1.79820,7637
1.80082,6282
1.80342,7694
1.80603,8309
1.80863,7340
1.81123,6546
1.81385,7906
1.81645,7896
1.81907,7675
1.82167,6794
1.82427,5981
1.82688,5252
1.82948,6279
1.83210,5529
1.83470,7197
1.83732,6712
1.83992,6339
1.84252,6562
1.84513,7468
1.84773,6790
1.85035,5645
1.85295,7250
1.85555,6858
1.85817,8718
1.86077,5482
1.86338,6455
1.86598,6840
1.86858,6630
1.87120,7026
1.87380,7407
1.87642,6122
1.87902,5784
1.88162,6259
1.88423,5746
1.88683,5400
1.88945,6537
1.89205,5426
1.89465,5909
1.89727,5593
1.89987,4426
1.90248,6392
1.90508,7156
1.90768,5564
1.91030,5847
1.91290,5450
1.91552,5102
1.91812,6862
1.92073,5815
1.92333,5104
1.92593,6605
1.92855,5380
1.93115,5592
1.93377,7017
1.93637,5804
1.93897,6003
1.94158,6663
1.94418,5675
1.94680,6525
1.94940,6350
1.95200,5058
1.95462,5911
1.95722,5123
1.95983,6867
1.96243,5209
1.96503,7189
1.96765,5517
1.97025,5687
1.97287,6657
1.97547,5277
1.97807,5807
1.98068,4997
1.98328,5133
1.98590,5327
1.98850,5404
1.99110,6487
1.99372,6634
1.99632,6796
1.99893,5501
2.00153,4687
2.00415,6766
2.00675,5900
2.00935,6244
2.01197,5807
2.01457,4980
2.01718,5192
2.01978,5784
2.02238,5409
2.02500,6134
2.02760,4269
2.03022,4318
2.03282,6705
2.03542,6852
2.03803,10150
2.04063,14822
2.04325,20210
2.04585,26473
2.04845,29321
2.05107,30213
2.05367,31431
2.05628,28202
2.05888,28310
2.06148,25390
2.06410,22968
2.06670,23535
2.06932,22066
2.07192,19666
2.07452,18284
2.07713,18282
2.07973,15634
2.08235,16417
2.08495,15104
2.08757,14794
2.09017,11721
2.09277,13359
2.09538,12903
2.09798,12548
2.10060,10762
2.10320,11550
2.10580,12017
2.10842,11750
2.11102,10113
2.11363,12611
2.11623,12263
2.11883,12128
2.12145,11784
2.12405,11994
2.12667,11525
2.12927,10106
2.13187,9951
2.13448,10629
2.13708,9911
2.13970,10461
2.14230,8900
2.14490,10489
2.14752,8331
2.15012,8318
2.15273,7699
2.15533,9257
2.15793,8862
2.16055,7806
2.16315,8076
2.16577,8923
2.16837,7976
2.17098,7266
2.17358,7227
2.17618,9283
2.17880,10297
2.18140,7920
2.18402,8550
2.18662,8416
2.18922,8091
2.19183,7851
2.19443,8233
2.19705,6282
2.19965,6483
2.20225,7405
2.20487,6606
2.20747,6958
2.21008,7186
2.21268,7586
2.21528,6749
2.21790,6491
2.22050,8757
2.22312,7938
2.22572,8459
2.22832,7426
2.23093,6663
2.23353,7393
2.23615,6473
2.23875,7108
2.24135,5503
2.24397,6819
2.24657,7318
2.24918,6144
2.25178,6419
2.25440,6542
2.25700,5456
2.25960,7991
2.26222,6265
2.26482,7282
2.26743,6484
2.27003,5300
2.27263,6522
2.27525,6399
2.27785,6157
2.28047,6580
2.28307,8165
2.28567,6735
2.28828,6766
2.29088,5895
2.29350,5828
2.29610,5932
2.29870,6077
2.30132,5905
2.30392,6581
2.30653,6393
2.30913,6339
2.31173,6214
2.31435,6701
2.31695,6028
2.31957,5412
2.32217,7024
2.32477,5460
2.32738,5939
2.32998,6344
2.33260,6756
2.33520,7087
2.33782,5986
2.34042,5810
2.34302,5929
2.34563,6402
2.34823,6168
2.35085,6692
2.35345,6158
2.35605,5884
2.35867,6071
2.36127,5570
2.36388,7677
2.36648,6260
2.36908,5592
2.37170,6125
2.37430,5590
2.37692,6329
2.37952,6006
2.38212,5894
2.38473,5279
2.38733,5715
2.38995,7242
2.39255,5790
2.39515,6625
2.39777,6356
2.40037,6064
2.40298,5418
2.40558,6346
2.40818,7141
2.41080,6092
2.41340,5592
2.41602,5663
2.41862,6223
2.42123,5786
2.42383,6575
2.42643,5612
2.42905,5506
2.43165,5247
2.43427,6509
2.43687,5377
2.43947,5325
2.44208,5681
2.44468,5996
2.44730,6831
2.44990,5541
2.45250,5206
2.45512,4859
2.45772,4966
2.46033,5607
2.46293,5997
2.46553,7043
2.46815,8069
2.47075,8414
2.47337,9275
2.47597,8900
2.47857,8576
2.48118,7992
2.48378,8531
2.48640,9349
2.48900,7011
2.49160,7697
2.49422,8282
2.49682,6618
2.49943,6479
2.50203,7496
2.50465,5981
2.50725,5711
2.50985,7351
2.51247,6982
2.51507,6187
2.51768,6335
2.52028,6454
2.52288,5694
2.52550,6095
2.52810,5454
2.53072,5511
2.53332,6970
2.53592,5443
2.53853,6379
2.54113,6334
2.54375,4945
2.54635,5760
2.54895,6045
2.55157,6299
2.55417,5780
2.55678,4415
2.55938,5763
2.56198,5334
2.56460,5884
2.56720,5229
2.56982,5305
2.57242,5720
2.57502,5851
2.57763,4919
2.58023,4847
2.58285,4277
2.58545,7305
2.58807,6370
2.59067,7661
2.59327,8248
2.59588,8268
2.59848,8599
2.60110,6378
2.60370,7468
2.60630,6241
2.60892,6647
2.61152,6408
2.61413,6962
2.61673,6380
2.61933,6481
2.62195,4844
2.62455,6276
2.62717,6999
2.62977,7900
2.63237,6870
2.63498,7311
2.63758,8113
2.64020,7124
2.64280,7825
2.64540,6604
2.64802,6641
2.65062,8341
2.65323,7300
2.65583,6310
2.65843,6145
2.66105,5197
2.66365,5305
2.66627,5189
2.66887,5264
2.67148,7100
2.67408,5331
2.67668,5251
2.67930,5952
2.68190,5391
2.68452,6054
2.68712,6303
2.68972,6149
2.69233,6755
2.69493,5327
2.69755,6727
2.70015,5846
2.70275,4906
2.70537,4491
2.70797,4439
2.71058,5041
2.71318,6025
2.71578,5368
2.71840,5400
2.72100,4780
2.72362,4456
2.72622,4350
2.72882,5689
2.73143,5229
2.73403,6033
2.73665,5048
2.73925,5243
2.74185,5696
2.74447,5355
2.74707,5195
2.74968,4403
2.75228,4323
2.75490,5231
2.75750,5147
2.76010,5781
2.76272,4618
2.76532,4683
2.76793,4947
2.77053,4342
2.77313,5076
2.77575,5528
2.77835,4864
2.78097,4712
2.78357,4574
2.78617,5085
2.78878,4993
2.79138,5157
2.79400,4724
2.79660,5878
2.79920,5398
2.80182,5176
2.80442,5134
2.80703,5429
2.80963,4610
2.81223,5305
2.81485,6194
2.81745,5132
2.82007,5533
2.82267,4516
2.82527,4754
2.82788,5637
2.83048,4570
2.83310,5493
2.83570,6252
2.83832,4984
2.84092,4818
2.84352,5386
2.84613,5938
2.84873,5174
2.85135,4331
2.85395,4648
2.85655,5289
2.85917,4358
2.86177,4962
2.86438,5661
2.86698,5386
2.86958,4914
2.87220,5438
2.87480,4738
2.87742,5714
2.88002,4954
2.88262,5959
2.88523,6369
2.88783,5384
2.89045,4884
2.89305,4363
2.89565,6171
2.89827,5178
2.90087,4986
2.90348,4937
2.90608,5090
2.90868,5347
2.91130,5706
2.91390,5500
2.91652,6133
2.91912,5752
2.92173,5696
2.92433,5589
2.92693,5948
2.92955,5509
2.93215,6127
2.93477,5318
2.93737,4972
2.93997,4725
2.94258,4929
2.94518,5331
2.94780,5047
2.95040,6286
2.95300,5903
2.95562,5634
2.95822,5264
2.96083,5612
2.96343,4537
2.96603,5130
2.96865,5576
2.97125,6589
2.97387,6620
2.97647,5862
2.97907,5789
2.98168,5406
2.98428,6247
2.98690,4796
2.98950,4929
2.99210,5473
2.99472,5285
2.99732,4946
2.99993,5170
3.00253,4835
3.00515,3922
3.00775,4967
3.01035,4317
3.01297,6503
3.01557,5313
3.01818,5262
3.02078,4931
3.02338,4942
3.02600,4468
3.02860,5240
3.03122,5716
3.03382,5747
3.03642,5289
3.03903,4641
3.04163,4250
3.04425,5197
3.04685,5298
3.04945,4123
3.05207,5689
3.05467,4577
3.05728,6041
3.05988,5974
3.06248,4441
3.06510,4067
3.06770,5521
3.07032,4658
3.07292,4059
3.07552,4137
3.07813,4476
3.08073,4325
3.08335,4332
3.08595,4817
3.08857,4465
3.09117,6128
3.09377,5194
3.09638,5270
3.09898,5321
3.10160,4333
3.10420,4645
3.10680,4461
3.10942,5292
3.11202,5325
3.11463,4932
3.11723,5151
3.11983,4594
3.12245,5317
3.12505,4703
3.12767,3803
3.13027,5242
3.13287,5787
3.13548,5532
3.13808,4016
3.14070,6216
3.14330,5882
3.14590,7962
3.14852,8432
3.15112,8424
3.15373,8515
3.15633,10067
3.15893,10811
3.16155,11024
3.16415,8837
3.16677,9557
3.16937,10435
3.17198,10561
3.17458,7657
3.17718,10057
3.17980,10388
3.18240,10084
3.18502,10319
3.18762,8540
3.19022,9147
3.19283,8658
3.19543,9964
3.19805,8237
3.20065,8650
3.20325,8252
3.20587,9221
3.20847,9392
3.21108,9372
3.21368,8900
3.21628,9123
3.21890,8186
3.22150,9376
3.22412,8280
3.22672,7666
3.22932,8180
3.23193,7113
3.23453,7547
3.23715,8129
3.23975,9462
3.24235,8741
3.24497,8153
3.24757,7961
3.25018,8599
3.25278,7583
3.25540,7988
3.25800,7303
3.26060,7746
3.26322,6670
3.26582,7305
3.26843,7266
3.27103,7091
3.27363,7008
3.27625,7915
3.27885,8013
3.28147,8247
3.28407,6858
3.28667,6838
3.28928,8157
3.29188,7585
3.29450,8387
3.29710,7734
3.29970,7263
3.30232,8558
3.30492,7153
3.30753,6389
3.31013,6402
3.31273,7523
3.31535,6742
3.31795,7990
3.32057,7643
3.32317,8063
3.32577,6769
3.32838,7242
3.33098,6946
3.33360,6500
3.33620,7534
3.33882,6877
3.34142,6538
3.34402,6586
3.34663,6692
3.34923,6763
3.35185,6180
3.35445,5827
3.35705,5900
3.35967,6263
3.36227,5297
3.36488,6963
3.36748,5227
3.37008,6480
3.37270,6598
3.37530,5883
3.37792,6091
3.38052,6589
3.38312,6248
3.38573,6402
3.38833,6185
3.39095,5446
3.39355,6273
3.39615,5167
3.39877,6202
3.40137,6183
3.40398,7068
3.40658,6343
3.40918,7321
3.41180,6435
3.41440,7080
3.41702,7037
3.41962,6057
3.42223,6371
3.42483,6840
3.42743,6470
3.43005,7126
3.43265,5964
3.43527,7762
3.43787,6561
3.44047,6774
3.44308,6686
3.44568,6103
3.44830,6698
3.45090,7151
3.45350,5920
3.45612,5975
3.45872,6289
3.46133,5042
3.46393,6017
3.46653,6998
3.46915,6588
3.47175,7185
3.47437,6949
3.47697,5438
3.47957,6143
3.48218,6135
3.48478,6241
3.48740,6547
3.49000,6231
3.49260,6360
3.49522,6570
3.49782,7222
3.50043,7513
3.50303,6724
3.50565,6988
3.50825,6452
3.51085,7327
3.51347,13348
3.51607,25875
3.51868,55909
3.52128,96929
3.52388,134830
3.52650,149576
3.52910,132210
3.53172,92253
3.53432,71950
3.53692,45563
3.53953,36219
3.54213,30084
3.54475,23926
3.54735,20642
3.54995,19423
3.55257,18008
3.55517,14915
3.55778,14242
3.56038,16329
3.56298,13130
3.56560,12201
3.56820,13212
3.57082,13434
3.57342,10775
3.57602,10789
3.57863,11199
3.58123,13561
3.58385,11424
3.58645,9782
3.58907,11719
3.59167,10305
3.59427,12684
3.59688,13449
3.59948,13101
3.60210,12403
3.60470,12206
3.60730,14758
3.60992,12728
3.61252,10637
3.61513,13504
3.61773,10872
3.62033,9690
3.62295,11246
3.62555,12316
3.62817,9065
3.63077,11260
3.63337,11561
3.63598,12688
3.63858,14208
3.64120,15366
3.64380,15016
3.64640,17135
3.64902,13619
3.65162,12332
3.65423,12416
3.65683,11943
3.65943,10412
3.66205,11591
3.66465,12103
3.66727,10944
3.66987,10968
3.67248,9621
3.67508,11266
3.67768,11407
3.68030,10174
3.68290,10088
3.68552,9860
3.68812,10931
3.69072,11502
3.69333,12249
3.69593,11898
3.69855,11246
3.70115,11872
3.70375,11447
3.70637,10850
3.70897,10613
3.71158,11373
3.71418,10481
3.71678,10531
3.71940,9682
3.72200,10664
3.72462,9352
3.72722,11180
3.72982,10204
3.73243,10798
3.73503,9503
3.73765,9060
3.74025,9956
3.74285,10801
3.74547,9383
3.74807,8830
3.75068,10046
3.75328,9664
3.75590,9528
3.75850,10488
3.76110,10060
3.76372,10146
3.76632,10465
3.76893,9637
3.77153,8197
3.77413,9933
3.77675,9763
3.77935,9094
3.78197,9101
3.78457,9278
3.78717,8765
3.78978,8923
3.79238,9769
3.79500,10375
3.79760,9555
3.80020,9317
3.80282,9100
3.80542,9552
3.80803,10772
3.81063,10131
3.81323,9073
3.81585,9811
3.81845,9222
3.82107,10789
3.82367,12327
3.82627,12921
3.82888,15219
3.83148,16047
3.83410,13492
3.83670,12463
3.83932,11438
3.84192,10629
3.84452,9387
3.84713,9512
3.84973,12678
3.85235,9690
3.85495,9043
3.85755,9479
3.86017,9510
3.86277,10625
3.86538,8998
3.86798,9705
3.87058,9964
3.87320,8489
3.87580,9096
3.87842,10292
3.88102,9314
3.88362,9134
3.88623,10262
3.88883,9843
3.89145,8194
3.89405,8673
3.89665,9007
3.89927,10674
3.90187,9398
3.90448,10679
3.90708,8824
3.90968,9612
3.91230,9777
3.91490,10709
3.91752,10292
3.92012,8994
3.92273,11878
3.92533,10508
3.92793,11210
3.93055,15082
3.93315,20901
3.93577,24489
3.93837,26705
3.94097,24672
3.94358,21861
3.94618,18099
3.94880,14789
3.95140,14473
3.95400,11479
3.95662,11199
3.95922,12923
3.96183,9536
3.96443,11800
3.96703,11485
3.96965,10758
3.97225,11809
3.97487,9931
3.97747,10096
3.98007,9239
3.98268,10798
3.98528,10386
3.98790,9096
3.99050,10592
3.99310,11342
3.99572,9011
3.99832,10051
4.00093,10184
4.00353,9404
4.00615,9525
4.00875,9715
4.01135,10390
4.01397,10107
4.01657,10169
4.01918,9179
4.02178,9067
4.02438,9129
4.02700,8770
4.02960,7704
4.03222,10129
4.03482,9361
4.03742,8899
4.04003,8144
4.04263,9765
4.04525,10935
4.04785,8322
4.05045,9039
4.05307,9126
4.05567,9421
4.05828,8765
4.06088,8220
4.06348,9523
4.06610,8195
4.06870,10524
4.07132,10710
4.07392,9580
4.07652,9131
4.07913,10110
4.08173,9639
4.08435,9302
4.08695,9347
4.08957,10588
4.09217,8977
4.09477,9819
4.09738,9398
4.09998,9997
4.10260,8856
4.10520,8911
4.10780,9549
4.11042,9063
4.11302,8604
4.11563,9173
4.11823,8199
4.12083,10473
4.12345,10347
4.12605,8070
4.12867,8800
4.13127,9363
4.13387,9838
4.13648,10200
4.13908,8492
4.14170,9588
4.14430,9447
4.14690,8884
4.14952,8750
4.15212,9609
4.15473,8434
4.15733,9108
4.15993,8014
4.16255,8576
4.16515,9904
4.16777,9612
4.17037,9739
4.17298,9078
4.17558,9186
4.17818,11114
4.18080,7353
4.18340,8865
4.18602,9444
4.18862,9414
4.19122,7942
4.19383,9420
4.19643,9231
4.19905,9062
4.20165,9381
4.20425,9548
4.20687,9497
4.20947,7709
4.21208,8177
4.21468,8777
4.21728,9098
4.21990,10738
4.22250,8854
4.22512,9799
4.22772,8188
4.23032,8367
4.23293,9629
4.23553,8902
4.23815,10275
4.24075,7828
4.24335,6910
4.24597,9862
4.24857,8719
4.25118,9604
4.25378,9093
4.25640,7431
4.25900,8205
4.26160,9518
4.26422,8875
4.26682,8358
4.26943,9311
4.27203,8560
4.27463,8515
4.27725,8570
4.27985,10719
4.28247,10402
4.28507,9274
4.28767,9675
4.29028,9355
4.29288,8147
4.29550,8746
4.29810,9284
4.30070,8315
4.30332,8534
4.30592,9216
4.30853,8174
4.31113,8638
4.31373,8610
4.31635,8586
4.31895,8856
4.32157,8602
4.32417,8919
4.32677,9544
4.32938,8975
4.33198,9671
4.33460,8271
4.33720,8816
4.33982,8461
4.34242,8159
4.34502,9724
4.34763,9279
4.35023,9060
4.35285,8651
4.35545,9449
4.35805,9070
4.36067,9742
4.36327,7782
4.36588,7925
4.36848,10006
4.37108,8756
4.37370,8354
4.37630,9167
4.37892,8504
4.38152,9269
4.38412,7987
4.38673,7799
4.38933,8947
4.39195,9709
4.39455,7857
4.39715,9806
4.39977,8973
4.40237,11697
4.40498,10291
4.40758,9418
4.41018,9837
4.41280,9830
4.41540,8997
4.41802,9195
4.42062,9234
4.42323,9836
4.42583,8978
4.42843,8689
4.43105,10410
4.43365,9943
4.43627,7433
4.43887,7763
4.44147,9255
4.44408,8211
4.44668,8399
4.44930,9212
4.45190,8311
4.45450,9181
4.45712,8724
4.45972,7719
4.46233,9592
4.46493,10063
4.46753,8937
4.47015,7905
4.47275,9019
4.47537,9948
4.47797,8706
4.48057,9469
4.48318,9516
4.48578,8588
4.48840,8486
4.49100,8249
4.49360,7475
4.49622,9042
4.49882,9027
4.50143,10087
4.50403,8958
4.50665,9962
4.50925,9204
4.51185,9340
4.51447,9921
4.51707,8860
4.51968,9274
4.52228,9007
4.52488,10755
4.52750,8111
4.53010,9939
4.53272,7956
4.53532,9458
4.53792,7698
4.54053,9466
4.54313,8675
4.54575,8778
4.54835,9128
4.55095,8843
4.55357,7168
4.55617,8668
4.55878,8563
4.56138,8418
4.56398,9334
4.56660,7852
4.56920,8221
4.57182,8256
4.57442,9673
4.57702,8343
4.57963,8173
4.58223,9387
4.58485,7964
4.58745,8464
4.59007,8262
4.59267,8259
4.59527,8665
4.59788,8857
4.60048,10174
4.60310,9492
4.60570,8666
4.60830,8794
4.61092,8491
4.61352,8265
4.61613,8591
4.61873,9333
4.62133,9481
4.62395,8958
4.62655,8985
4.62917,9445
4.63177,8060
4.63437,8212
4.63698,9736
4.63958,9064
4.64220,9099
4.64480,8134
4.64740,9349
4.65002,8649
4.65262,8984
4.65523,8680
4.65783,7172
4.66043,8244
4.66305,8314
4.66565,8410
4.66827,8722
4.67087,8721
4.67348,7486
4.67608,10513
4.67868,9440
4.68130,8992
4.68390,9580
4.68652,8611
4.68912,9826
4.69172,9111
4.69433,8477
4.69693,8648
4.69955,10457
4.70215,9167
4.70475,9696
4.70737,8080
4.70997,8002
4.71258,7615
4.71518,8299
4.71778,8116
4.72040,8435
4.72300,8780
4.72562,9100
4.72822,9215
4.73082,10023
4.73343,10599
4.73603,9884
4.73865,7788
4.74125,9066
4.74385,9278
4.74647,8414
4.74907,8301
4.75168,7329
4.75428,8644
4.75690,7778
4.75950,10445
4.76210,8894
4.76472,8497
4.76732,9297
4.76993,7544
4.77253,8793
4.77513,8829
4.77775,8208
4.78035,9309
4.78297,9765
4.78557,10072
4.78817,9255
4.79078,8117
4.79338,8411
4.79600,7949
4.79860,8013
4.80120,9422
4.80382,9117
4.80642,8420
4.80903,9197
4.81163,8794
4.81423,9293
4.81685,10258
4.81945,9519
4.82207,8580
4.82467,8418
4.82727,10179
4.82988,9183
4.83248,9719
4.83510,9579
4.83770,9875
4.84032,8685
4.84292,7183
4.84552,8991
4.84813,9070
4.85073,8350
4.85335,8132
4.85595,10512
4.85855,9146
4.86117,10381
4.86377,8936
4.86638,9509
4.86898,8135
4.87158,9023
4.87420,8165
4.87680,8430
4.87942,8211
4.88202,9433
4.88462,9819
4.88723,9669
4.88983,8861
4.89245,9466
4.89505,8027
4.89765,9526
4.90027,8684
4.90287,10246
4.90548,8907
4.90808,10071
4.91068,8517
4.91330,9708
4.91590,8321
4.91852,9885
4.92112,9343
4.92373,9555
4.92633,9476
4.92893,9440
4.93155,8974
4.93415,8184
4.93677,8656
4.93937,7681
4.94197,8759
4.94458,9113
4.94718,10161
4.94980,9213
4.95240,7659
4.95500,7788
4.95762,7866
4.96022,8473
4.96283,8085
4.96543,8715
4.96803,9761
4.97065,8350
4.97325,9409
4.97587,7481
4.97847,8621
4.98107,8624
4.98368,10324
4.98628,8978
4.98890,7826
4.99150,8656
4.99410,8108
4.99672,9070
4.99932,8789
5.00193,10580
5.00453,7881
5.00715,9416
5.00975,7949
5.01235,8052
5.01497,8528
5.01757,9196
5.02018,7632
5.02278,9810
5.02538,10135
5.02800,9120
5.03060,7958
5.03322,7364
5.03582,9312
5.03842,7211
5.04103,8050
5.04363,8147
5.04625,9075
5.04885,9119
5.05145,9047
5.05407,9163
5.05667,9056
5.05928,10770
5.06188,8046
5.06448,7633
5.06710,9967
5.06970,9217
5.07232,8726
5.07492,8743
5.07752,9622
5.08013,9188
5.08273,9278
5.08535,8472
5.08795,8436
5.09057,10618
5.09317,10096
5.09577,9512
5.09838,10148
5.10098,8811
5.10360,10318
5.10620,9735
5.10880,10003
5.11142,7508
5.11402,10069
5.11663,9366
5.11923,9584
5.12183,9089
5.12445,7084
5.12705,9472
5.12967,9105
5.13227,8178
5.13487,7728
5.13748,8767
5.14008,9611
5.14270,8741
5.14530,8645
5.14790,9554
5.15052,10291
5.15312,10348
5.15573,8842
5.15833,9525
5.16093,8967
5.16355,10495
5.16615,9126
5.16877,7083
5.17137,9534
5.17398,8069
5.17658,8294
5.17918,9369
5.18180,8666
5.18440,8447
5.18702,9620
5.18962,7925
5.19222,8375
5.19483,7509
5.19743,9489
5.20005,9632
5.20265,8874
5.20525,10091
5.20787,9219
5.21047,9611
5.21308,9307
5.21568,8439
5.21828,8438
5.22090,9697
5.22350,7525
5.22612,8745
5.22872,9900
5.23132,9102
5.23393,9536
5.23653,8881
5.23915,9589
5.24175,9455
5.24437,8608
5.24697,10384
5.24957,8899
5.25218,8236
5.25478,9253
5.25740,8715
5.26000,9456
5.26260,7745
5.26522,9829
5.26782,9196
5.27043,10186
5.27303,9036
5.27563,7999
5.27825,8792
5.28085,8572
5.28347,9491
5.28607,8314
5.28867,9564
5.29128,8334
5.29388,8987
5.29650,9399
5.29910,9703
5.30170,8458
5.30432,10015
5.30692,8294
5.30953,8768
5.31213,7606
5.31473,8140
5.31735,9408
5.31995,8063
5.32257,7532
5.32517,8492
5.32778,10102
5.33038,7955
5.33298,10259
5.33560,8297
5.33820,8311
5.34082,9070
5.34342,8695
5.34602,10710
5.34863,9110
5.35123,8443
5.35385,8572
5.35645,9746
5.35905,9597
5.36167,9514
5.36427,7889
5.36688,8477
5.36948,9624
5.37208,8709
5.37470,8723
5.37730,9565
5.37992,10343
5.38252,9139
5.38512,10448
5.38773,9259
5.39033,9778
5.39295,8635
5.39555,9352
5.39815,8566
5.40077,8507
5.40337,9234
5.40598,8354
5.40858,9550
5.41120,9486
5.41380,9792
5.41640,8954
5.41902,8337
5.42162,8829
5.42423,8982
5.42683,9509
5.42943,9553
5.43205,7962
5.43465,9381
5.43727,9159
5.43987,9695
5.44247,8879
5.44508,9478
5.44768,9623
5.45030,10278
5.45290,10914
5.45550,10181
5.45812,12346
5.46072,11914
5.46333,11264
5.46593,10711
5.46853,10408
5.47115,11210
5.47375,11420
5.47637,8132
5.47897,9442
5.48157,10292
5.48418,9992
5.48678,12018
5.48940,8976
5.49200,10312
5.49462,9180
5.49722,9062
5.49982,8075
5.50243,8883
5.50503,9995
5.50765,9646
5.51025,9500
5.51285,10041
5.51547,9550
5.51807,9324
5.52068,9403
5.52328,9279
5.52588,8587
5.52850,11125
5.53110,9776
5.53372,8770
5.53632,8464
5.53892,10849
5.54153,10261
5.54413,8737
5.54675,10696
5.54935,9256
5.55195,9912
5.55457,9023
5.55717,9267
5.55978,8549
5.56238,9385
5.56498,9110
5.56760,7865
5.57020,8918
5.57282,8112
5.57542,8305
5.57803,8478
5.58063,10238
5.58323,9243
5.58585,9458
5.58845,9489
5.59107,9223
5.59367,9565
5.59627,9481
5.59888,10314
5.60148,11007
5.60410,12248
5.60670,11942
5.60930,10454
5.61192,8489
5.61452,9312
5.61713,7994
5.61973,8540
5.62233,9564
5.62495,10191
5.62755,9697
5.63017,8372
5.63277,8385
5.63537,9051
5.63798,10246
5.64058,9292
5.64320,9294
5.64580,9974
5.64840,9633
5.65102,9961
5.65362,10214
5.65623,9717
5.65883,10483
5.66145,9088
5.66405,9261
5.66665,8814
5.66927,9187
5.67187,11529
5.67448,9559
5.67708,10100
5.67968,8869
5.68230,9993
5.68490,8620
5.68752,10937
5.69012,9937
5.69272,9292
5.69533,9869
5.69793,9928
5.70055,10797
5.70315,10830
5.70575,12482
5.70837,11070
5.71097,10612
5.71358,10806
5.71618,10935
5.71878,11787
5.72140,10234
5.72400,10268
5.72662,10053
5.72922,9193
5.73182,10022
5.73443,8973
5.73703,9939
5.73965,9967
5.74225,8223
5.74487,9928
5.74747,10138
5.75007,8245
5.75268,10543
5.75528,10368
5.75790,10572
5.76050,9849
5.76310,9856
5.76572,9592
5.76832,8910
5.77093,9568
5.77353,9364
5.77613,9596
5.77875,9477
5.78135,9774
5.78397,10464
5.78657,9940
5.78917,10254
5.79178,10417
5.79438,10813
5.79700,10373
5.79960,11812
5.80220,9737
5.80482,10543
5.80742,9431
5.81003,10563
5.81263,11971
5.81523,17507
5.81785,22325
5.82045,33313
5.82307,37761
5.82567,39262
5.82828,35176
5.83088,23592
5.83348,19702
5.83610,15230
5.83870,14498
5.84132,14798
5.84392,17343
5.84652,17302
5.84913,16685
5.85173,13375
5.85435,10358
5.85695,10924
5.85955,11762
5.86217,11822
5.86477,9132
5.86738,11414
5.86998,9224
5.87258,11684
5.87520,9613
5.87780,9754
5.88042,10503
5.88302,10134
5.88562,10937
5.88823,10885
5.89083,11425
5.89345,10714
5.89605,11183
5.89865,9987
5.90127,9663
5.90387,9709
5.90648,9433
5.90908,10401
5.91170,10722
5.91430,9297
5.91690,9767
5.91952,9849
5.92212,11547
5.92473,10516
5.92733,10256
5.92993,11599
5.93255,12501
5.93515,12195
5.93777,12504
5.94037,14074
5.94297,15214
5.94558,13630
5.94818,13715
5.95080,13371
5.95340,13124
5.95600,14182
5.95862,12301
5.96122,12188
5.96383,12655
5.96643,10373
5.96903,12765
5.97165,11923
5.97425,11345
5.97687,11653
5.97947,12363
5.98207,10012
5.98468,11822
5.98728,10465
5.98990,11443
5.99250,11800
5.99512,11109
5.99772,12616
6.00032,11475
6.00293,10739
6.00553,13288
6.00815,11948
6.01075,9598
6.01335,11988
6.01597,9859
6.01857,12752
6.02118,12887
6.02378,10922
6.02638,11566
6.02900,11489
6.03160,12223
6.03422,10303
6.03682,10501
6.03942,10887
6.04203,10746
6.04463,11657
6.04725,14210
6.04985,15133
6.05245,17911
6.05507,19517
6.05767,17146
6.06028,18479
6.06288,18257
6.06548,18720
6.06810,17892
6.07070,16567
6.07332,15741
6.07592,16862
6.07853,13779
6.08113,14400
6.08373,12056
6.08635,13285
6.08895,10864
6.09157,11879
6.09417,12163
6.09677,12176
6.09938,11980
6.10198,14038
6.10460,11555
6.10720,11231
6.10980,13227
6.11242,13408
6.11502,11971
6.11763,12154
6.12023,12771
6.12283,11685
6.12545,13801
6.12805,14089
6.13067,14332
6.13327,14713
6.13587,12332
6.13848,12066
6.14108,11338
6.14370,14138
6.14630,11770
6.14890,12067
6.15152,11351
6.15412,12124
6.15673,10018
6.15933,10843
6.16195,11968
6.16455,11066
6.16715,11162
6.16977,11737
6.17237,13091
6.17498,12780
6.17758,11351
6.18018,13019
6.18280,12195
6.18540,12424
6.18802,12033
6.19062,12126
6.19322,10175
6.19583,10252
6.19843,11744
6.20105,11949
6.20365,11387
6.20625,9657
6.20887,10451
6.21147,11591
6.21408,11000
6.21668,9974
6.21928,12144
6.22190,11135
6.22450,12581
6.22712,11342
6.22972,10012
6.23232,12574
6.23493,8775
6.23753,11539
6.24015,10340
6.24275,9855
6.24537,11067
6.24797,11566
6.25057,10080
6.25318,10412
6.25578,11900
6.25840,11625
6.26100,10872
6.26360,10371
6.26622,9981
6.26882,11889
6.27143,11784
6.27403,10822
6.27663,10559
6.27925,12681
6.28185,11623
6.28447,11710
6.28707,11131
6.28967,10673
6.29228,11698
6.29488,11329
6.29750,11065
6.30010,11281
6.30270,11503
6.30532,11113
6.30792,9676
6.31053,10802
6.31313,11748
6.31573,10923
6.31835,10674
6.32095,10675
6.32357,10514
6.32617,11108
6.32878,9581
6.33138,11079
6.33398,10949
6.33660,11541
6.33920,11170
6.34182,10943
6.34442,12849
6.34702,11610
6.34963,9910
6.35223,10246
6.35485,12471
6.35745,11041
6.36005,11060
6.36267,12116
6.36527,10985
6.36788,10397
6.37048,10764
6.37308,10638
6.37570,10836
6.37830,10571
6.38092,10984
6.38352,11016
6.38612,10945
6.38873,9550
6.39133,12892
6.39395,11614
6.39655,10578
6.39915,11223
6.40177,11519
6.40437,13158
6.40698,12656
6.40958,11604
6.41220,12584
6.41480,9740
6.41740,12744
6.42002,10919
6.42262,11556
6.42523,9516
6.42783,11043
6.43043,12144
6.43305,9098
6.43565,11940
6.43827,9801
6.44087,11693
6.44347,11323
6.44608,11928
6.44868,10803
6.45130,11434
6.45390,11604
6.45650,11226
6.45912,12721
6.46172,10391
6.46433,11711
6.46693,9589
6.46953,12751
6.47215,11826
6.47475,12201
6.47737,11088
6.47997,11979
6.48257,12997
6.48518,14482
6.48778,12903
6.49040,15099
6.49300,17520
6.49562,27913
6.49822,57964
6.50082,109649
6.50343,183419
6.50603,251861
6.50865,281981
6.51125,239234
6.51385,170525
6.51647,107324
6.51907,68793
6.52168,51798
6.52428,43865
6.52688,38062
6.52950,33098
6.53210,33275
6.53472,33563
6.53732,26082
6.53992,27619
6.54253,26768
6.54513,23381
6.54775,23808
6.55035,21758
6.55295,24446
6.55557,21224
6.55817,21871
6.56078,19433
6.56338,20977
6.56598,19849
6.56860,20348
6.57120,20432
6.57382,19601
6.57642,18684
6.57903,19685
6.58163,18266
6.58423,21368
6.58685,30157
6.58945,76685
6.59207,265995
6.59467,922144
6.59727,2628825
6.59988,5935638
6.60248,1.052158E+07
6.60510,1.638974E+07
6.60770,2.207669E+07
6.61030,2.686145E+07
6.61292,3.229303E+07
6.61552,3.63722E+07
6.61813,3.958458E+07
6.62073,3.774524E+07
6.62333,2.339959E+07
6.62595,6958076
6.62855,1498571
6.63117,529377
6.63377,318030
6.63637,232988
6.63898,181802
6.64158,155898
6.64420,136161
6.64680,114639
6.64940,105146
6.65202,91314
6.65462,82869
6.65723,79780
6.65983,72565
6.66245,71816
6.66505,63990
6.66765,61754
6.67027,57268
6.67287,57989
6.67548,54270
6.67808,51236
6.68068,50244
6.68330,46259
6.68590,44746
6.68852,46032
6.69112,42360
6.69372,41670
6.69633,40400
6.69893,40260
6.70155,36693
6.70415,36030
6.70675,37415
6.70937,36148
6.71197,34019
6.71458,31774
6.71718,32815
6.71978,33291
6.72240,29787
6.72500,31754
6.72762,29975
6.73022,30062
6.73282,29215
6.73543,29486
6.73803,30498
6.74065,27879
6.74325,30020
6.74587,29088
6.74847,28205
6.75107,26413
6.75368,26531
6.75628,25439
6.75890,26633
6.76150,24749
6.76410,29570
6.76672,29430
6.76932,30033
6.77193,28013
6.77453,28166
6.77713,28107
6.77975,24801
6.78235,26400
6.78497,23432
6.78757,22587
6.79017,21736
6.79278,24871
6.79538,21536
6.79800,21928
6.80060,21308
6.80320,21600
6.80582,22472
6.80842,22226
6.81103,21494
6.81363,20247
6.81623,21206
6.81885,20460
6.82145,19586
6.82407,19929
6.82667,21251
6.82928,19498
6.83188,21257
6.83448,21403
6.83710,23265
6.83970,20788
6.84232,20509
6.84492,19432
6.84752,20814
6.85013,20121
6.85273,19801
6.85535,20269
6.85795,26712
6.86055,27054
6.86317,37168
6.86577,41000
6.86838,47384
6.87098,49213
6.87358,48441
6.87620,48483
6.87880,39409
6.88142,38991
6.88402,39320
6.88662,36186
6.88923,32824
6.89183,31489
6.89445,33132
6.89705,30239
6.89965,29748
6.90227,25482
6.90487,26668
6.90748,25829
6.91008,24585
6.91270,25181
6.91530,25952
6.91790,23381
6.92052,22471
6.92312,23051
6.92573,21822
6.92833,24406
6.93093,24052
6.93355,25008
6.93615,28042
6.93877,28836
6.94137,28780
6.94397,25025
6.94658,23584
6.94918,22483
6.95180,22951
6.95440,23967
6.95700,23650
6.95962,25279
6.96222,24285
6.96483,24128
6.96743,23305
6.97003,22413
6.97265,20108
6.97525,19120
6.97787,20115
6.98047,18848
6.98307,21042
6.98568,18849
6.98828,18977
6.99090,17573
6.99350,17752
6.99612,21288
6.99872,18977
7.00132,20837
7.00393,18912
7.00653,19083
7.00915,21038
7.01175,20252
7.01435,18515
7.01697,17370
7.01957,18962
7.02218,17911
7.02478,18516
7.02738,19147
7.03000,19087
7.03260,18611
7.03522,17450
7.03782,18859
7.04042,19136
7.04303,18752
7.04563,20310
7.04825,19858
7.05085,20120
7.05345,23615
7.05607,22723
7.05867,23438
7.06128,22374
7.06388,22671
7.06648,22026
7.06910,19548
7.07170,19207
7.07432,20538
7.07692,21459
7.07953,20096
7.08213,18711
7.08473,20084
7.08735,17340
7.08995,18333
7.09257,17563
7.09517,18747
7.09777,19908
7.10038,15452
7.10298,19731
7.10560,16640
7.10820,17202
7.11080,17729
7.11342,17188
7.11602,16861
7.11863,18377
7.12123,17757
7.12383,18534
7.12645,19786
7.12905,18054
7.13167,19619
7.13427,16655
7.13687,16710
7.13948,19046
7.14208,18676
7.14470,17566
7.14730,18363
7.14990,15951
7.15252,19371
7.15512,16984
7.15773,18184
7.16033,16725
7.16295,16694
7.16555,17319
7.16815,17145
7.17077,16830
7.17337,16368
7.17598,18498
7.17858,19451
7.18118,18375
7.18380,17707
7.18640,17335
7.18902,16456
7.19162,19887
7.19422,17370
7.19683,18685
7.19943,16433
7.20205,18764
7.20465,22124
7.20725,25982
7.20987,34957
7.21247,42339
7.21508,39667
7.21768,41680
7.22028,34472
7.22290,28345
7.22550,21240
7.22812,22420
7.23072,20885
7.23332,24023
7.23593,20383
7.23853,23162
7.24115,24850
7.24375,22626
7.24637,21777
7.24897,21672
7.25157,20989
7.25418,21766
7.25678,19738
7.25940,17906
7.26200,18536
7.26460,16457
7.26722,20993
7.26982,19315
7.27243,18514
7.27503,20040
7.27763,19296
7.28025,19142
7.28285,17487
7.28547,19249
7.28807,18293
7.29067,19188
7.29328,19779
7.29588,20136
7.29850,17841
7.30110,17626
7.30370,17014
7.30632,17423
7.30892,17785
7.31153,17045
7.31413,18699
7.31673,17323
7.31935,16634
7.32195,18521
7.32457,18838
7.32717,17737
7.32978,18622
7.33238,16303
7.33498,19463
7.33760,19459
7.34020,18963
7.34282,18635
7.34542,19501
7.34802,18289
7.35063,18376
7.35323,18072
7.35585,16987
7.35845,17471
7.36105,16674
7.36367,19395
7.36627,17785
7.36888,18657
7.37148,17801
7.37408,21008
7.37670,18092
7.37930,18209
7.38192,19031
7.38452,18349
7.38712,19381
7.38973,18756
7.39233,20217
7.39495,17929
7.39755,15298
7.40015,19296
7.40277,19054
7.40537,18160
7.40798,19799
7.41058,19063
7.41320,19038
7.41580,19686
7.41840,19914
7.42102,16926
7.42362,19278
7.42623,17431
7.42883,17234
7.43143,18954
7.43405,19533
7.43665,18321
7.43927,17705
7.44187,18242
7.44447,19342
7.44708,22195
7.44968,19548
7.45230,18610
7.45490,17907
7.45750,18228
7.46012,19263
7.46272,17537
7.46533,17412
7.46793,19709
7.47053,19624
7.47315,18790
7.47575,18419
7.47837,19155
7.48097,18679
7.48357,20746
7.48618,21382
7.48878,19629
7.49140,21942
7.49400,20127
7.49662,20160
7.49922,20730
7.50182,19798
7.50443,20454
7.50703,18351
7.50965,18250
7.51225,20967
7.51485,21583
7.51747,18575
7.52007,22156
7.52268,20828
7.52528,23133
7.52788,20907
7.53050,21449
7.53310,22326
7.53572,23891
7.53832,21282
7.54092,21266
7.54353,21120
7.54613,21338
7.54875,20076
7.55135,19017
7.55395,19236
7.55657,19802
7.55917,19061
7.56178,19774
7.56438,18724
7.56698,20049
7.56960,20309
7.57220,22059
7.57482,21405
7.57742,23540
7.58003,24429
7.58263,25186
7.58523,26546
7.58785,26854
7.59045,23521
7.59307,21489
7.59567,20910
7.59827,21341
7.60088,20580
7.60348,20485
7.60610,20456
7.60870,20119
7.61130,19994
7.61392,22042
7.61652,20743
7.61913,23443
7.62173,21116
7.62433,22517
7.62695,23217
7.62955,19909
7.63217,22273
7.63477,21380
7.63737,21471
7.63998,22549
7.64258,20099
7.64520,22275
7.64780,21227
7.65040,22078
7.65302,22070
7.65562,20808
7.65823,22163
7.66083,22517
7.66345,25279
7.66605,26536
7.66865,36957
7.67127,60040
7.67387,82808
7.67648,107068
7.67908,113200
7.68168,104748
7.68430,76427
7.68690,55096
7.68952,41447
7.69212,36181
7.69472,32417
7.69733,33390
7.69993,28980
7.70255,28868
7.70515,29752
7.70775,25989
7.71037,26497
7.71297,27055
7.71558,27439
7.71818,25766
7.72078,26339
7.72340,27789
7.72600,24718
7.72862,25741
7.73122,28422
7.73382,25517
7.73643,26174
7.73903,25820
7.74165,27129
7.74425,25361
7.74687,27830
7.74947,24684
7.75207,24816
7.75468,24911
7.75728,24404
7.75990,24320
7.76250,26536
7.76510,26351
7.76772,25133
7.77032,25911
7.77293,25378
7.77553,23960
7.77813,27129
7.78075,24303
7.78335,25958
7.78597,26150
7.78857,22680
7.79117,26448
7.79378,26276
7.79638,24819
7.79900,25181
7.80160,25259
7.80420,25508
7.80682,23621
7.80942,24349
7.81203,26052
7.81463,26507
7.81723,27618
7.81985,25869
7.82245,28556
7.82507,30379
7.82767,32166
7.83028,31883
7.83288,30658
7.83548,29942
7.83810,26975
7.84070,26457
7.84332,24971
7.84592,26182
7.84852,27134
7.85113,24711
7.85373,23978
7.85635,25569
7.85895,26113
7.86155,26008
7.86417,24202
7.86677,24387
7.86938,25735
7.87198,24646
7.87458,26071
7.87720,25330
7.87980,25697
7.88242,24372
7.88502,25075
7.88762,26884
7.89023,24371
7.89283,25232
7.89545,25604
7.89805,26843
7.90065,27283
7.90327,25262
7.90587,31235
7.90848,32087
7.91108,32032
7.91370,30025
7.91630,29611
7.91890,27382
7.92152,27713
7.92412,27267
7.92673,27761
7.92933,25381
7.93193,27198
7.93455,26577
7.93715,28696
7.93977,25547
7.94237,26074
7.94497,25721
7.94758,25025
7.95018,27623
7.95280,25647
7.95540,28002
7.95800,25823
7.96062,27645
7.96322,28713
7.96583,25604
7.96843,24781
7.97103,27851
7.97365,25746
7.97625,27492
7.97887,28862
7.98147,27764
7.98407,27305
7.98668,27622
7.98928,28961
7.99190,26856
7.99450,27220
7.99712,26813
7.99972,25692
8.00232,26929
8.00493,26306
8.00753,29484
8.01015,27544
8.01275,29557
8.01535,28663
8.01797,27370
8.02057,29468
8.02318,29716
8.02578,29560
8.02838,26767
8.03100,27017
8.03360,25407
8.03622,30076
8.03882,28055
8.04142,26927
8.04403,26287
8.04663,28479
8.04925,28108
8.05185,32550
8.05445,33735
8.05707,61961
8.05967,142935
8.06228,460676
8.06488,1555754
8.06748,4390286
8.07010,9032417
8.07270,1.414881E+07
8.07532,1.829454E+07
8.07792,2.002874E+07
8.08053,1.796142E+07
8.08313,1.189955E+07
8.08573,6202382
8.08835,3176837
8.09095,1886937
8.09357,1327416
8.09617,1000835
8.09877,806745
8.10138,651385
8.10398,553797
8.10660,469456
8.10920,410664
8.11180,341346
8.11442,322847
8.11702,289754
8.11963,268280
8.12223,229009
8.12483,220580
8.12745,197448
8.13005,191948
8.13267,174745
8.13527,162154
8.13787,146276
8.14048,141020
8.14308,137415
8.14570,126640
8.14830,124088
8.15090,112934
8.15352,107735
8.15612,108552
8.15873,97714
8.16133,101532
8.16395,94293
8.16655,88154
8.16915,89437
8.17177,92626
8.17437,92017
8.17698,102605
8.17958,108693
8.18218,108431
8.18480,103386
8.18740,95139
8.19002,82423
8.19262,77274
8.19522,69634
8.19783,66892
8.20043,68103
8.20305,66304
8.20565,63458
8.20825,65911
8.21087,66056
8.21347,62758
8.21608,62905
8.21868,60858
8.22128,54781
8.22390,53883
8.22650,53640
8.22912,55769
8.23172,51606
8.23432,50485
8.23693,51401
8.23953,52875
8.24215,47785
8.24475,50598
8.24737,46267
8.24997,48411
8.25257,46800
8.25518,47350
8.25778,47847
8.26040,46315
8.26300,46532
8.26560,44846
8.26822,48522
8.27082,45886
8.27343,47315
8.27603,46418
8.27863,43569
8.28125,41972
8.28385,42139
8.28647,45298
8.28907,45919
8.29167,48373
8.29428,42143
8.29688,45490
8.29950,43645
8.30210,44554
8.30470,45936
8.30732,48145
8.30992,41878
8.31253,44662
8.31513,45260
8.31773,44878
8.32035,43748
8.32295,45275
8.32557,43803
8.32817,45109
8.33078,42962
8.33338,43465
8.33598,41392
8.33860,41933
8.34120,42123
8.34382,42748
8.34642,42079
8.34902,46041
8.35163,44395
8.35423,44726
8.35685,42772
8.35945,43899
8.36205,41058
8.36467,41419
8.36727,46438
8.36988,42915
8.37248,44227
8.37508,44160
8.37770,42995
8.38030,43278
8.38292,42059
8.38552,44872
8.38812,45015
8.39073,43633
8.39333,43059
8.39595,43436
8.39855,45348
8.40115,43714
8.40377,43937
8.40637,44193
8.40898,45199
8.41158,45482
8.41420,45012
8.41680,44015
8.41940,43982
8.42202,44794
8.42462,46042
8.42723,45967
8.42983,44404
8.43243,46985
8.43505,45760
8.43765,46063
8.44027,46275
8.44287,43824
8.44547,44237
8.44808,44591
8.45068,48006
8.45330,47624
8.45590,47094
8.45850,43123
8.46112,47842
8.46372,43617
8.46633,46852
8.46893,49363
8.47153,51998
8.47415,52503
8.47675,56521
8.47937,53398
8.48197,53330
8.48457,52013
8.48718,51014
8.48978,52692
8.49240,49126
8.49500,49491
8.49762,51274
8.50022,51238
8.50282,56401
8.50543,55513
8.50803,62817
8.51065,65558
8.51325,65102
8.51585,63783
8.51847,57718
8.52107,53573
8.52368,54661
8.52628,54211
8.52888,53730
8.53150,51784
8.53410,54179
8.53672,54214
8.53932,55981
8.54192,53021
8.54453,53463
8.54713,54694
8.54975,53738
8.55235,55346
8.55495,57033
8.55757,55474
8.56017,56026
8.56278,55683
8.56538,53001
8.56798,55468
8.57060,54319
8.57320,53414
8.57582,56570
8.57842,55189
8.58103,53857
8.58363,53155
8.58623,56771
8.58885,56279
8.59145,57170
8.59407,56361
8.59667,56335
8.59927,58939
8.60188,56282
8.60448,55160
8.60710,61248
8.60970,59478
8.61230,61769
8.61492,61320
8.61752,59373
8.62013,59878
8.62273,62792
8.62533,60019
8.62795,61457
8.63055,63273
8.63317,61146
8.63577,61622
8.63837,64444
8.64098,65032
8.64358,60413
8.64620,63776
8.64880,61550
8.65140,59642
8.65402,66370
8.65662,65135
8.65923,63968
8.66183,65290
8.66445,69307
8.66705,65812
8.66965,64492
8.67227,66703
8.67487,65767
8.67748,66764
8.68008,67538
8.68268,68214
8.68530,68170
8.68790,73618
8.69052,74013
8.69312,71572
8.69572,77104
8.69833,71566
8.70093,73009
8.70355,71682
8.70615,77775
8.70875,78923
8.71137,78205
8.71397,78594
8.71658,78511
8.71918,82154
8.72178,80505
8.72440,80857
8.72700,85207
8.72962,84811
8.73222,85245
8.73482,84598
8.73743,82073
8.74003,77266
8.74265,78769
8.74525,81717
8.74787,76797
8.75047,80324
8.75307,76764
8.75568,79678
8.75828,80402
8.76090,75816
8.76350,77709
8.76610,81705
8.76872,81653
8.77132,78848
8.77393,77614
8.77653,82991
8.77913,77262
8.78175,77764
8.78435,83049
8.78697,82050
8.78957,80593
8.79217,79006
8.79478,77086
8.79738,77238
8.80000,80892
8.80260,83081
8.80520,79902
8.80782,80535
8.81042,80942
8.81303,82170
8.81563,81257
8.81823,80365
8.82085,83291
8.82345,82606
8.82607,82950
8.82867,83599
8.83128,82592
8.83388,85156
8.83648,88833
8.83910,84381
8.84170,86296
8.84432,84433
8.84692,84786
8.84952,86233
8.85213,83087
8.85473,86280
8.85735,85237
8.85995,90036
8.86255,84884
8.86517,89162
8.86777,83276
8.87038,85502
8.87298,84999
8.87558,86790
8.87820,89427
8.88080,86557
8.88342,89411
8.88602,87575
8.88862,91482
8.89123,85865
8.89383,88619
8.89645,85560
8.89905,91456
8.90165,90553
8.90427,90979
8.90687,93803
8.90948,87307
8.91208,89947
8.91470,92257
8.91730,90940
8.91990,94101
8.92252,85174
8.92512,93477
8.92773,94700
8.93033,90298
8.93293,93364
8.93555,95091
8.93815,93805
8.94077,95307
8.94337,96780
8.94597,91072
8.94858,92584
8.95118,92603
8.95380,93276
8.95640,92050
8.95900,91618
8.96162,96448
8.96422,93915
8.96683,94553
8.96943,95202
8.97203,95866
8.97465,96226
8.97725,91424
8.97987,94706
8.98247,96356
8.98507,96202
8.98768,96869
8.99028,93186
8.99290,92648
8.99550,93939
8.99812,93390
9.00072,99373
9.00332,97118
9.00593,95257
9.00853,97291
9.01115,93101
9.01375,91771
9.01635,93990
9.01897,91697
9.02157,99409
9.02418,94917
9.02678,96830
9.02938,96322
9.03200,94511
9.03460,98646
9.03722,97559
9.03982,97049
9.04242,94054
9.04503,96687
9.04763,96770
9.05025,98550
9.05285,96254
9.05545,98009
9.05807,97739
9.06067,100082
9.06328,94078
9.06588,98048
9.06848,96906
9.07110,97677
9.07370,101887
9.07632,98383
9.07892,100125
9.08153,96108
9.08413,97102
9.08673,95663
9.08935,99688
9.09195,98123
9.09457,100275
9.09717,100172
9.09977,96507
9.10238,97030
9.10498,99955
9.10760,101098
9.11020,95480
9.11280,96295
9.11542,98916
9.11802,96652
9.12063,97218
9.12323,101164
9.12583,102865
9.12845,103494
9.13105,100883
9.13367,102472
9.13627,99012
9.13887,99414
9.14148,99476
9.14408,98102
9.14670,97187
9.14930,98345
9.15190,98774
9.15452,97648
9.15712,99888
9.15973,97124
9.16233,97857
9.16495,99151
9.16755,96888
9.17015,99577
9.17277,101395
9.17537,98950
9.17798,99170
9.18058,102149
9.18318,103729
9.18580,101403
9.18840,98524
9.19102,102808
9.19362,104148
9.19622,104124
9.19883,103042
9.20143,100332
9.20405,102971
9.20665,102056
9.20925,99962
9.21187,98287
9.21447,103487
9.21708,97444
9.21968,97168
9.22228,102482
9.22490,100870
9.22750,101512
9.23012,95453
9.23272,103428
9.23532,97173
9.23793,97868
9.24053,98820
9.24315,101257
9.24575,101054
9.24837,99370
9.25097,98927
9.25357,99863
9.25618,102973
9.25878,99463
9.26140,97136
9.26400,101212
9.26660,103548
9.26922,100112
9.27182,102046
9.27443,102009
9.27703,98123
9.27963,98329
9.28225,98255
9.28485,99032
9.28747,101252
9.29007,101484
9.29267,98268
9.29528,100222
9.29788,95572
9.30050,99425
9.30310,97155
9.30570,100344
9.30832,97634
9.31092,97087
9.31353,98693
9.31613,101919
9.31873,97119
9.32135,97320
9.32395,99777
9.32657,97279
9.32917,96467
9.33178,99963
9.33438,96772
9.33698,93856
9.33960,98214
9.34220,98300
9.34482,96523
9.34742,98314
9.35002,98936
9.35263,100179
9.35523,99865
9.35785,98859
9.36045,100961
9.36305,101271
9.36567,98000
9.36827,99556
9.37088,103476
9.37348,98790
9.37608,100176
9.37870,98356
9.38130,102552
9.38392,96920
9.38652,99121
9.38912,99537
9.39173,97769
9.39433,94971
9.39695,96098
9.39955,103088
9.40215,102529
9.40477,98301
9.40737,99381
9.40998,99824
9.41258,100700
9.41520,96126
9.41780,96949
9.42040,101541
9.42302,96379
9.42562,97795
9.42823,100338
9.43083,100232
9.43343,100820
9.43605,97116
9.43865,98070
9.44127,99557
9.44387,99986
9.44647,99945
9.44908,97906
9.45168,97439
9.45430,99336
9.45690,98063
9.45950,97371
9.46212,99806
9.46472,97135
9.46733,102801
9.46993,103177
9.47253,101807
9.47515,100214
9.47775,100856
9.48037,99498
9.48297,103597
9.48557,101489
9.48818,99949
9.49078,100206
9.49340,99010
9.49600,93990
9.49862,95279
9.50122,96855
9.50382,97047
9.50643,100151
9.50903,101694
9.51165,100648
9.51425,99837
9.51685,101220
9.51947,98485
9.52207,99974
9.52468,101169
9.52728,98078
9.52988,97714
9.53250,97360
9.53510,96173
9.53772,97340
9.54032,99857
9.54292,98068
9.54553,102103
9.54813,95311
9.55075,97387
9.55335,97159
9.55595,99085
9.55857,99808
9.56117,96085
9.56378,99974
9.56638,100038
9.56898,99018
9.57160,96633
9.57420,98332
9.57682,98922
9.57942,98003
9.58203,98345
9.58463,98824
9.58723,103348
9.58985,99729
9.59245,96033
9.59507,102192
9.59767,99950
9.60027,96571
9.60288,102252
9.60548,99902
9.60810,97401
9.61070,93791
9.61330,95662
9.61592,100466
9.61852,98732
9.62113,95842
9.62373,99029
9.62633,99092
9.62895,92378
9.63155,97324
9.63417,96494
9.63677,97037
9.63937,97890
9.64198,99194
9.64458,95625
9.64720,101023
9.64980,100775
9.65240,97859
9.65502,101125
9.65762,96710
9.66023,96688
9.66283,98813
9.66545,103279
9.66805,95449
9.67065,97720
9.67327,98114
9.67587,98680
9.67848,100898
9.68108,97205
9.68368,94820
9.68630,99940
9.68890,97497
9.69152,100084
9.69412,99520
9.69672,95170
9.69933,100699
9.70193,99974
9.70455,95475
9.70715,97445
9.70975,96414
9.71237,97590
9.71497,96160
9.71758,99165
9.72018,99607
9.72278,93942
9.72540,101618
9.72800,96935
9.73062,96274
9.73322,98046
9.73582,96471
9.73843,95946
9.74103,102134
9.74365,94413
9.74625,96602
9.74887,97005
9.75147,101129
9.75407,97931
9.75668,102049
9.75928,100315
9.76190,100253
9.76450,98308
9.76710,99410
9.76972,98699
9.77232,101695
9.77493,100282
9.77753,98357
9.78013,97754
9.78275,98433
9.78535,99783
9.78797,99991
9.79057,100176
9.79317,97864
9.79578,97206
9.79838,102823
9.80100,98575
9.80360,98218
9.80620,99318
9.80882,100709
9.81142,101501
9.81403,99494
9.81663,98065
9.81923,101697
9.82185,98925
9.82445,96704
9.82707,97322
9.82967,101940
9.83228,98752
9.83488,99869
9.83748,99467
9.84010,100371
9.84270,100265
9.84532,94798
9.84792,98976
9.85052,102516
9.85313,99902
9.85573,101118
9.85835,99813
9.86095,102023
9.86355,95509
9.86617,102030
9.86877,100917
9.87138,100856
9.87398,100955
9.87658,98979
9.87920,100450
9.88180,104829
9.88442,100051
9.88702,97756
9.88962,103003
9.89223,99291
9.89483,94429
9.89745,101361
9.90005,99259
9.90265,97410
9.90527,98556
9.90787,101368
9.91048,95316
9.91308,100237
9.91570,94339
9.91830,96321
9.92090,95901
9.92352,98072
9.92612,101460
9.92873,95847
9.93133,98479
9.93393,96384
9.93655,99661
9.93915,98203
9.94177,100964
9.94437,96953
9.94697,97683
9.94958,100152
9.95218,96813
9.95480,100937
9.95740,100940
9.96000,98317
9.96262,97561
9.96522,97497
9.96783,97571
9.97043,98996
9.97303,99812
9.97565,101287
9.97825,98317
9.98087,98727
9.98347,98218
9.98607,99579
9.98868,95138
9.99128,98817
9.99390,97510
9.99650,98384
9.99912,100080
10.00172,97517
10.00432,97714
10.00693,97852
10.00953,98785
10.01215,99869
10.01475,97763
10.01735,100596
10.01997,98080
10.02257,100497
10.02518,97920
10.02778,97666
10.03038,99558
10.03300,101881
10.03560,102826
10.03822,101411
10.04082,95226
10.04342,101580
10.04603,98267
10.04863,101341
10.05125,101548
10.05385,100035
10.05645,99638
10.05907,98108
10.06167,97447
10.06428,102386
10.06688,98986
10.06948,99499
10.07210,99404
10.07470,96311
10.07732,98275
10.07992,102126
10.08253,101534
10.08513,99392
10.08773,99625
10.09035,97983
10.09295,99768
10.09557,99934
10.09817,102471
10.10077,101330
10.10338,104060
10.10598,100045
10.10860,101818
10.11120,101302
10.11380,97743
10.11642,101998
10.11902,102376
10.12163,97282
10.12423,99559
10.12683,100808
10.12945,96864
10.13205,97547
10.13467,96198
10.13727,96409
10.13987,103883
10.14248,98686
10.14508,101242
10.14770,99828
10.15030,96338
10.15290,98968
10.15552,99387
10.15812,100797
10.16073,98605
10.16333,96781
10.16595,100526
10.16855,101452
10.17115,101224
10.17377,97518
10.17637,99453
10.17898,100912
10.18158,98002
10.18418,98485
10.18680,96740
10.18940,99128
10.19202,95842
10.19462,99531
10.19722,101545
10.19983,99745
10.20243,102524
10.20505,99642
10.20765,104895
10.21025,102279
10.21287,98208
10.21547,97835
10.21808,96478
10.22068,103609
10.22328,100626
10.22590,103644
10.22850,101744
10.23112,102208
10.23372,99482
10.23632,103956
10.23893,98769
10.24153,101122
10.24415,102213
10.24675,95174
10.24937,103783
10.25197,98908
10.25457,99074
10.25718,102759
10.25978,100417
10.26240,100008
10.26500,100617
10.26760,101475
10.27022,99958
10.27282,97477
10.27543,95703
10.27803,101285
10.28063,98644
10.28325,104127
10.28585,98070
10.28847,101436
10.29107,99275
10.29367,100190
10.29628,96672
10.29888,96761
10.30150,100435
10.30410,101856
10.30670,97012
10.30932,95503
10.31192,101244
10.31453,97952
10.31713,100108
10.31973,93103
10.32235,104515
10.32495,99210
10.32757,102096
10.33017,99473
10.33278,99583
10.33538,99227
10.33798,99633
10.34060,98020
10.34320,97831
10.34582,98633
10.34842,97827
10.35102,101511
10.35363,97917
10.35623,99031
10.35885,102574
10.36145,100401
10.36405,96093
10.36667,99018
10.36927,101699
10.37188,102967
10.37448,96969
10.37708,102654
10.37970,97568
10.38230,97346
10.38492,100977
10.38752,96322
10.39012,103096
10.39273,100979
10.39533,101080
10.39795,100567
10.40055,101634
10.40315,98881
10.40577,101065
10.40837,101754
10.41098,100061
10.41358,98028
10.41620,96672
10.41880,99598
10.42140,99274
10.42402,100344
10.42662,100097
10.42923,101464
10.43183,99575
10.43443,103182
10.43705,98681
10.43965,99699
10.44227,100312
10.44487,98363
10.44747,102777
10.45008,99994
10.45268,98725
10.45530,99920
10.45790,100215
10.46050,96795
10.46312,100837
10.46572,100729
10.46833,101351
10.47093,100922
10.47353,97964
10.47615,105524
10.47875,98720
10.48137,104396
10.48397,99246
10.48657,98178
10.48918,98160
10.49178,103074
10.49440,100153
10.49700,104139
10.49962,103460
10.50222,104507
10.50482,103288
10.50743,104454
10.51003,102168
10.51265,102353
10.51525,101638
10.51785,102650
10.52047,100620
10.52307,98984
10.52568,101799
10.52828,102719
10.53088,99465
10.53350,95280
10.53610,102260
10.53872,96438
10.54132,98244
10.54392,96855
10.54653,97184
10.54913,101104
10.55175,97905
10.55435,102406
10.55695,99572
10.55957,101414
10.56217,99405
10.56478,98985
10.56738,95455
10.56998,99183
10.57260,100881
10.57520,103578
10.57782,104157
10.58042,102346
10.58303,98676
10.58563,102068
10.58823,101294
10.59085,98841
10.59345,99402
10.59607,100303
10.59867,101076
10.60127,100093
10.60388,99786
10.60648,98476
10.60910,100271
10.61170,101351
10.61430,101168
10.61692,100910
10.61952,97777
10.62213,99596
10.62473,99297
10.62733,100197
10.62995,100782
10.63255,98418
10.63517,102787
10.63777,99778
10.64037,98639
10.64298,101060
10.64558,99998
10.64820,99328
10.65080,103713
10.65340,99832
10.65602,98134
10.65862,100026
10.66123,104029
10.66383,101252
