D:\data\overige2021\rk\20200201rk_cocacase28x\BLANK-06_210004.D Mon Feb 01 14:45:11 2021
Start of data points
1.58975,71170
1.59237,69587
1.59497,69983
1.59758,73605
1.60018,70328
1.60278,65641
1.60540,66393
1.60800,63295
1.61062,64513
1.61322,60997
1.61583,61659
1.61843,61030
1.62103,54802
1.62365,56064
1.62625,57459
1.62887,52090
1.63147,52318
1.63407,50491
1.63668,50540
1.63928,53060
1.64190,48145
1.64450,47772
1.64710,47250
1.64972,45825
1.65232,48188
1.65493,46788
1.65753,44361
1.66013,45308
1.66275,42003
1.66535,41546
1.66797,41313
1.67057,41041
1.67317,40377
1.67578,39360
1.67838,36231
1.68100,38842
1.68360,35688
1.68620,35975
1.68882,36751
1.69142,37745
1.69403,35155
1.69663,36223
1.69925,34214
1.70185,32875
1.70445,32938
1.70707,32970
1.70967,30911
1.71228,31405
1.71488,33821
1.71748,33577
1.72010,32000
1.72270,29353
1.72532,31541
1.72792,30586
1.73052,30200
1.73313,31263
1.73573,28959
1.73835,27417
1.74095,28588
1.74355,28108
1.74617,25581
1.74877,28676
1.75138,25663
1.75398,27737
1.75658,27728
1.75920,24435
1.76180,24854
1.76442,26655
1.76702,25263
1.76962,23792
1.77223,25493
1.77483,25584
1.77745,21427
1.78005,24857
1.78267,24557
1.78527,24046
1.78787,24056
1.79048,23273
1.79308,21619
1.79570,22328
1.79830,23658
1.80090,24656
1.80352,21803
1.80612,22496
1.80873,22424
1.81133,22283
1.81393,21574
1.81655,21335
1.81915,20122
1.82177,21547
1.82437,21344
1.82697,19245
1.82958,19223
1.83218,20153
1.83480,19218
1.83740,18187
1.84000,20453
1.84262,18549
1.84522,20095
1.84783,19351
1.85043,19936
1.85303,19934
1.85565,18208
1.85825,19828
1.86087,17761
1.86347,18621
1.86608,17122
1.86868,15530
1.87128,17892
1.87390,16101
1.87650,18142
1.87912,19699
1.88172,17732
1.88432,17694
1.88693,19006
1.88953,16281
1.89215,18616
1.89475,17299
1.89735,17238
1.89997,17268
1.90257,16539
1.90518,16460
1.90778,16846
1.91038,17576
1.91300,16818
1.91560,16234
1.91822,16586
1.92082,17017
1.92342,16621
1.92603,18791
1.92863,16471
1.93125,15197
1.93385,16855
1.93645,17558
1.93907,16254
1.94167,15333
1.94428,16545
1.94688,16672
1.94950,16580
1.95210,16932
1.95470,17683
1.95732,14739
1.95992,16232
1.96253,14175
1.96513,16629
1.96773,16468
1.97035,17074
1.97295,16146
1.97557,12419
1.97817,15380
1.98077,16082
1.98338,14433
1.98598,15971
1.98860,15983
1.99120,16587
1.99380,15878
1.99642,15489
1.99902,14796
2.00163,15803
2.00423,15928
2.00683,15718
2.00945,16865
2.01205,14961
2.01467,14001
2.01727,16392
2.01987,14596
2.02248,13708
2.02508,15017
2.02770,15010
2.03030,15032
2.03292,15482
2.03552,13111
2.03812,13587
2.04073,13150
2.04333,15039
2.04595,14035
2.04855,15005
2.05115,15195
2.05377,14757
2.05637,16843
2.05898,14530
2.06158,14935
2.06418,15982
2.06680,13023
2.06940,12220
2.07202,12705
2.07462,13470
2.07722,13623
2.07983,15894
2.08243,13893
2.08505,11909
2.08765,14238
2.09025,14229
2.09287,13888
2.09547,13728
2.09808,14119
2.10068,14508
2.10328,12495
2.10590,14330
2.10850,15216
2.11112,13274
2.11372,12626
2.11633,15581
2.11893,14750
2.12153,13452
2.12415,15077
2.12675,15213
2.12937,14252
2.13197,15420
2.13457,12396
2.13718,13762
2.13978,14964
2.14240,13169
2.14500,14204
2.14760,14283
2.15022,13129
2.15282,13683
2.15543,12956
2.15803,12964
2.16063,12218
2.16325,13548
2.16585,13708
2.16847,13559
2.17107,13785
2.17367,14124
2.17628,12398
2.17888,15757
2.18150,13190
2.18410,11352
2.18670,16168
2.18932,15711
2.19192,12713
2.19453,12693
2.19713,13574
2.19975,14645
2.20235,11821
2.20495,13060
2.20757,13614
2.21017,12768
2.21278,13062
2.21538,12655
2.21798,13514
2.22060,12760
2.22320,12515
2.22582,13246
2.22842,14159
2.23102,12925
2.23363,13074
2.23623,11398
2.23885,14236
2.24145,13856
2.24405,13427
2.24667,14069
2.24927,12383
2.25188,13479
2.25448,14989
2.25708,12229
2.25970,13151
2.26230,14620
2.26492,12443
2.26752,13082
2.27012,14074
2.27273,14124
2.27533,11767
2.27795,13719
2.28055,12621
2.28317,14373
2.28577,13143
2.28837,14930
2.29098,13906
2.29358,14722
2.29620,11600
2.29880,13008
2.30140,13063
2.30402,11645
2.30662,14106
2.30923,12122
2.31183,13629
2.31443,12701
2.31705,14580
2.31965,13228
2.32227,13704
2.32487,13221
2.32747,13172
2.33008,12677
2.33268,12938
2.33530,13164
2.33790,13579
2.34050,12291
2.34312,12783
2.34572,13314
2.34833,13208
2.35093,12499
2.35353,13891
2.35615,13583
2.35875,13192
2.36137,13922
2.36397,10605
2.36658,11932
2.36918,12129
2.37178,12874
2.37440,12985
2.37700,13223
2.37962,13437
2.38222,15370
2.38482,12424
2.38743,13197
2.39003,13036
2.39265,13049
2.39525,14802
2.39785,12790
2.40047,12172
2.40307,12728
2.40568,12974
2.40828,13119
2.41088,14992
2.41350,13333
2.41610,11720
2.41872,12839
2.42132,14414
2.42392,13289
2.42653,14395
2.42913,11306
2.43175,12577
2.43435,14126
2.43695,11693
2.43957,13085
2.44217,13412
2.44478,11285
2.44738,12245
2.45000,13050
2.45260,13821
2.45520,12594
2.45782,13336
2.46042,12151
2.46303,12461
2.46563,11349
2.46823,12643
2.47085,11293
2.47345,13356
2.47607,13287
2.47867,12050
2.48127,11156
2.48388,11758
2.48648,11812
2.48910,13127
2.49170,10998
2.49430,14141
2.49692,14482
2.49952,13915
2.50213,11479
2.50473,14025
2.50733,14337
2.50995,12976
2.51255,12252
2.51517,13012
2.51777,12501
2.52037,13736
2.52298,12023
2.52558,13306
2.52820,11602
2.53080,11835
2.53342,11451
2.53602,12898
2.53862,12726
2.54123,12195
2.54383,12806
2.54645,14754
2.54905,13404
2.55165,11420
2.55427,13717
2.55687,12146
2.55948,12560
2.56208,12136
2.56468,11544
2.56730,10986
2.56990,12079
2.57252,11367
2.57512,12137
2.57772,12965
2.58033,12581
2.58293,12976
2.58555,12797
2.58815,12508
2.59075,12861
2.59337,14035
2.59597,12934
2.59858,11515
2.60118,12160
2.60378,13337
2.60640,14205
2.60900,10833
2.61162,13922
2.61422,13424
2.61683,12808
2.61943,11457
2.62203,13634
2.62465,13507
2.62725,13237
2.62987,12896
2.63247,11714
2.63507,11004
2.63768,12702
2.64028,11985
2.64290,12337
2.64550,11166
2.64810,10992
2.65072,13044
2.65332,11150
2.65593,12075
2.65853,11199
2.66113,13316
2.66375,13701
2.66635,12281
2.66897,12264
2.67157,12934
2.67417,13607
2.67678,12418
2.67938,11525
2.68200,14085
2.68460,12325
2.68720,13806
2.68982,13229
2.69242,12032
2.69503,12088
2.69763,11648
2.70025,11803
2.70285,13155
2.70545,12704
2.70807,13654
2.71067,11144
2.71328,13100
2.71588,13009
2.71848,11838
2.72110,12225
2.72370,13858
2.72632,11786
2.72892,12730
2.73152,12781
2.73413,12865
2.73673,11959
2.73935,10006
2.74195,12674
2.74455,11832
2.74717,12229
2.74977,11340
2.75238,12673
2.75498,13501
2.75758,13752
2.76020,13476
2.76280,11182
2.76542,14038
2.76802,11517
2.77062,12797
2.77323,11499
2.77583,13227
2.77845,10776
2.78105,13755
2.78367,12965
2.78627,11107
2.78887,13071
2.79148,12714
2.79408,11991
2.79670,13699
2.79930,13087
2.80190,11976
2.80452,10642
2.80712,13737
2.80973,11586
2.81233,12940
2.81493,12193
2.81755,10822
2.82015,12437
2.82277,10785
2.82537,11635
2.82797,12242
2.83058,12884
2.83318,11575
2.83580,15015
2.83840,12638
2.84100,13198
2.84362,13392
2.84622,13479
2.84883,11937
2.85143,11051
2.85403,10430
2.85665,9537
2.85925,12404
2.86187,11671
2.86447,12987
2.86708,11960
2.86968,12859
2.87228,11274
2.87490,11649
2.87750,12243
2.88012,11724
2.88272,13183
2.88532,12240
2.88793,12051
2.89053,10812
2.89315,14341
2.89575,9940
2.89835,12648
2.90097,12555
2.90357,12605
2.90618,11155
2.90878,11796
2.91138,11235
2.91400,11717
2.91660,13894
2.91922,13585
2.92182,11527
2.92442,13261
2.92703,11806
2.92963,10848
2.93225,10724
2.93485,11655
2.93745,13372
2.94007,11365
2.94267,12118
2.94528,12573
2.94788,12481
2.95050,11262
2.95310,12109
2.95570,12980
2.95832,11451
2.96092,11322
2.96353,13082
2.96613,13018
2.96873,14220
2.97135,10983
2.97395,11781
2.97657,11646
2.97917,11105
2.98177,12548
2.98438,12293
2.98698,12091
2.98960,13016
2.99220,12430
2.99480,12883
2.99742,13637
3.00002,12061
3.00263,11975
3.00523,12103
3.00783,11892
3.01045,12329
3.01305,13085
3.01567,12785
3.01827,13496
3.02087,12320
3.02348,12743
3.02608,11786
3.02870,12798
3.03130,11286
3.03392,12503
3.03652,11413
3.03912,11474
3.04173,11595
3.04433,10962
3.04695,12431
3.04955,14127
3.05215,12258
3.05477,11224
3.05737,12531
3.05998,12873
3.06258,11361
3.06518,11043
3.06780,12809
3.07040,11558
3.07302,12145
3.07562,12826
3.07822,11813
3.08083,12151
3.08343,13773
3.08605,11138
3.08865,12816
3.09125,11444
3.09387,11406
3.09647,12105
3.09908,12106
3.10168,13212
3.10428,12874
3.10690,12529
3.10950,10702
3.11212,13046
3.11472,13114
3.11733,11434
3.11993,11566
3.12253,11755
3.12515,13305
3.12775,11568
3.13037,9834
3.13297,13749
3.13557,11588
3.13818,12547
3.14078,11841
3.14340,13453
3.14600,11438
3.14860,11749
3.15122,10650
3.15382,11379
3.15643,12555
3.15903,11556
3.16163,11912
3.16425,10327
3.16685,13588
3.16947,12673
3.17207,12103
3.17467,11353
3.17728,13783
3.17988,13317
3.18250,12380
3.18510,13095
3.18770,12252
3.19032,11175
3.19292,10511
3.19553,14149
3.19813,13599
3.20075,11642
3.20335,11473
3.20595,12042
3.20857,11368
3.21117,11070
3.21378,12581
3.21638,12065
3.21898,11814
3.22160,12634
3.22420,12595
3.22682,10478
3.22942,13680
3.23202,11775
3.23463,12101
3.23723,12857
3.23985,10969
3.24245,12073
3.24505,12045
3.24767,12462
3.25027,13578
3.25288,11726
3.25548,10030
3.25808,12864
3.26070,11463
3.26330,10344
3.26592,9978
3.26852,10955
3.27112,12713
3.27373,13088
3.27633,12403
3.27895,12143
3.28155,11437
3.28417,10850
3.28677,10931
3.28937,11125
3.29198,11256
3.29458,11848
3.29720,13596
3.29980,10584
3.30240,11681
3.30502,11349
3.30762,10976
3.31023,11738
3.31283,10293
3.31543,11000
3.31805,12309
3.32065,10645
3.32327,12528
3.32587,13768
3.32847,12528
3.33108,11717
3.33368,11921
3.33630,10783
3.33890,12398
3.34150,10944
3.34412,11385
3.34672,11844
3.34933,11972
3.35193,12763
3.35453,10911
3.35715,10824
3.35975,10848
3.36237,11823
3.36497,11605
3.36758,11085
3.37018,10746
3.37278,11110
3.37540,11563
3.37800,11600
3.38062,12267
3.38322,11062
3.38582,12243
3.38843,11503
3.39103,10468
3.39365,10774
3.39625,11047
3.39885,10541
3.40147,12591
3.40407,11300
3.40668,12404
3.40928,12699
3.41188,10506
3.41450,12872
3.41710,12910
3.41972,12268
3.42232,11161
3.42492,12426
3.42753,10429
3.43013,11977
3.43275,11550
3.43535,11656
3.43795,11635
3.44057,11531
3.44317,12055
3.44578,11608
3.44838,11138
3.45100,10956
3.45360,11935
3.45620,13449
3.45882,10910
3.46142,10118
3.46403,11317
3.46663,11842
3.46923,11656
3.47185,12748
3.47445,11641
3.47707,12245
3.47967,10720
3.48227,9831
3.48488,10904
3.48748,11751
3.49010,10779
3.49270,11111
3.49530,11336
3.49792,12020
3.50052,11938
3.50313,13141
3.50573,11914
3.50833,11886
3.51095,13240
3.51355,11940
3.51617,11068
3.51877,10592
3.52137,13351
3.52398,13437
3.52658,13926
3.52920,14512
3.53180,14616
3.53442,15300
3.53702,14785
3.53962,13858
3.54223,16670
3.54483,15355
3.54745,16560
3.55005,14730
3.55265,15120
3.55527,13907
3.55787,16214
3.56048,13812
3.56308,14737
3.56568,16117
3.56830,13144
3.57090,16763
3.57352,13609
3.57612,14352
3.57872,13595
3.58133,14587
3.58393,14248
3.58655,14455
3.58915,14948
3.59175,14387
3.59437,15401
3.59697,13299
3.59958,15446
3.60218,15325
3.60478,15764
3.60740,14972
3.61000,14857
3.61262,14801
3.61522,15911
3.61783,15234
3.62043,15608
3.62303,15664
3.62565,15615
3.62825,15798
3.63087,16007
3.63347,15715
3.63607,15400
3.63868,15633
3.64128,13381
3.64390,15832
3.64650,13877
3.64910,15664
3.65172,13341
3.65432,14528
3.65693,15263
3.65953,14716
3.66213,15827
3.66475,14831
3.66735,15021
3.66997,17293
3.67257,16132
3.67517,14570
3.67778,14541
3.68038,13275
3.68300,15706
3.68560,14542
3.68822,15337
3.69082,17379
3.69342,15118
3.69603,14837
3.69863,15580
3.70125,14134
3.70385,15823
3.70645,16481
3.70907,16876
3.71167,14762
3.71428,12999
3.71688,15527
3.71948,16916
3.72210,15498
3.72470,15151
3.72732,14426
3.72992,15534
3.73252,15842
3.73513,15440
3.73773,13452
3.74035,15257
3.74295,16736
3.74555,16198
3.74817,14466
3.75077,15001
3.75338,16840
3.75598,14411
3.75858,14371
3.76120,18269
3.76380,14483
3.76642,15977
3.76902,14026
3.77163,16638
3.77423,14228
3.77683,14398
3.77945,15463
3.78205,15165
3.78467,15879
3.78727,15388
3.78987,14726
3.79248,15727
3.79508,14644
3.79770,14793
3.80030,14765
3.80290,13794
3.80552,15165
3.80812,15892
3.81073,17057
3.81333,14344
3.81593,16707
3.81855,15819
3.82115,15643
3.82377,16364
3.82637,15822
3.82897,15562
3.83158,14941
3.83418,15948
3.83680,13292
3.83940,14773
3.84200,14378
3.84462,14099
3.84722,14476
3.84983,14624
3.85243,15045
3.85505,16552
3.85765,15323
3.86025,16856
3.86287,13851
3.86547,14610
3.86808,14042
3.87068,15196
3.87328,16478
3.87590,17297
3.87850,15848
3.88112,15717
3.88372,14409
3.88632,16137
3.88893,14756
3.89153,16097
3.89415,13214
3.89675,14443
3.89935,15973
3.90197,14823
3.90457,14872
3.90718,15750
3.90978,17727
3.91238,15771
3.91500,15821
3.91760,14713
3.92022,15194
3.92282,12591
3.92542,13641
3.92803,13129
3.93063,14762
3.93325,16902
3.93585,14316
3.93847,14743
3.94107,14022
3.94367,15385
3.94628,14816
3.94888,15778
3.95150,15166
3.95410,14908
3.95670,12864
3.95932,15505
3.96192,15105
3.96453,15329
3.96713,15339
3.96973,13848
3.97235,13679
3.97495,14504
3.97757,14500
3.98017,15800
3.98277,14937
3.98538,13573
3.98798,14582
3.99060,15436
3.99320,14808
3.99580,16275
3.99842,15758
4.00102,16649
4.00363,14374
4.00623,14944
4.00883,14606
4.01145,14938
4.01405,13554
4.01667,13342
4.01927,16036
4.02188,14309
4.02448,15975
4.02708,15210
4.02970,15684
4.03230,15010
4.03492,15653
4.03752,13590
4.04012,15511
4.04273,14390
4.04533,14392
4.04795,13452
4.05055,16981
4.05315,14616
4.05577,14999
4.05837,15838
4.06098,17263
4.06358,13667
4.06618,14637
4.06880,13744
4.07140,14548
4.07402,15584
4.07662,13879
4.07922,14788
4.08183,14131
4.08443,13042
4.08705,14006
4.08965,14874
4.09225,15550
4.09487,14467
4.09747,14666
4.10008,16771
4.10268,16977
4.10530,15519
4.10790,14737
4.11050,14783
4.11312,15401
4.11572,14763
4.11833,14730
4.12093,15268
4.12353,15892
4.12615,16004
4.12875,13615
4.13137,15088
4.13397,16138
4.13657,15498
4.13918,16420
4.14178,15851
4.14440,15995
4.14700,15826
4.14960,16341
4.15222,15378
4.15482,15819
4.15743,14683
4.16003,15770
4.16263,15053
4.16525,15461
4.16785,13944
4.17047,14495
4.17307,15577
4.17567,16420
4.17828,14650
4.18088,14816
4.18350,16514
4.18610,12622
4.18872,16085
4.19132,14163
4.19392,16428
4.19653,16267
4.19913,15540
4.20175,15553
4.20435,14590
4.20695,15339
4.20957,15487
4.21217,14943
4.21478,13934
4.21738,12958
4.21998,15477
4.22260,17009
4.22520,15264
4.22782,14689
4.23042,15542
4.23302,15841
4.23563,13085
4.23823,16029
4.24085,14962
4.24345,15141
4.24605,13606
4.24867,15584
4.25127,14781
4.25388,15838
4.25648,15445
4.25908,13465
4.26170,13560
4.26430,13674
4.26692,15910
4.26952,14590
4.27213,14087
4.27473,13636
4.27733,16301
4.27995,15966
4.28255,13335
4.28517,14729
4.28777,15436
4.29037,15028
4.29298,14604
4.29558,13432
4.29820,14329
4.30080,14399
4.30340,14180
4.30602,16602
4.30862,14284
4.31123,15365
4.31383,16359
4.31643,15775
4.31905,14065
4.32165,15683
4.32427,14935
4.32687,12149
4.32947,14677
4.33208,15654
4.33468,14994
4.33730,15170
4.33990,16142
4.34250,15240
4.34512,14273
4.34772,15630
4.35033,15057
4.35293,14410
4.35555,15337
4.35815,13721
4.36075,13610
4.36337,13356
4.36597,14841
4.36858,13957
4.37118,15569
4.37378,13307
4.37640,12706
4.37900,16360
4.38162,14175
4.38422,14632
4.38682,14563
4.38943,13500
4.39203,16449
4.39465,15814
4.39725,16412
4.39985,15966
4.40247,14587
4.40507,16338
4.40768,16076
4.41028,15125
4.41288,15256
4.41550,14814
4.41810,14391
4.42072,14508
4.42332,14941
4.42592,15746
4.42853,15097
4.43113,14173
4.43375,14724
4.43635,14758
4.43897,16652
4.44157,13481
4.44417,14476
4.44678,17886
4.44938,13656
4.45200,13897
4.45460,13466
4.45720,15768
4.45982,13792
4.46242,14575
4.46503,15349
4.46763,14032
4.47023,13916
4.47285,13244
4.47545,14409
4.47807,14555
4.48067,14976
4.48327,13954
4.48588,13120
4.48848,15039
4.49110,14502
4.49370,15716
4.49630,15237
4.49892,14479
4.50152,15085
4.50413,15807
4.50673,12630
4.50933,14710
4.51195,14560
4.51455,15062
4.51717,16404
4.51977,15346
4.52238,16997
4.52498,16014
4.52758,17132
4.53020,15815
4.53280,16401
4.53542,15970
4.53802,14069
4.54062,16983
4.54323,16104
4.54583,15686
4.54845,14402
4.55105,16468
4.55365,15253
4.55627,15194
4.55887,15371
4.56148,16275
4.56408,14521
4.56668,12963
4.56930,15870
4.57190,15979
4.57452,14071
4.57712,14519
4.57972,15911
4.58233,15305
4.58493,15502
4.58755,13119
4.59015,14994
4.59275,15411
4.59537,15610
4.59797,16011
4.60058,16366
4.60318,15513
4.60580,15960
4.60840,15126
4.61100,15577
4.61362,16121
4.61622,15832
4.61883,15146
4.62143,15945
4.62403,14616
4.62665,15550
4.62925,15860
4.63187,14603
4.63447,14915
4.63707,13895
4.63968,16497
4.64228,15599
4.64490,14910
4.64750,15801
4.65010,14740
4.65272,14786
4.65532,15646
4.65793,13787
4.66053,15881
4.66313,16084
4.66575,15727
4.66835,15147
4.67097,16039
4.67357,16289
4.67617,15843
4.67878,13337
4.68138,14949
4.68400,15610
4.68660,14579
4.68922,16117
4.69182,16027
4.69442,16491
4.69703,15355
4.69963,15230
4.70225,13710
4.70485,16782
4.70745,15141
4.71007,15915
4.71267,14966
4.71528,14777
4.71788,15957
4.72048,13819
4.72310,13681
4.72570,16557
4.72832,15763
4.73092,15373
4.73352,14920
4.73613,15454
4.73873,15627
4.74135,15699
4.74395,15041
4.74655,15793
4.74917,15519
4.75177,14824
4.75438,15692
4.75698,16550
4.75958,13826
4.76220,12216
4.76480,15603
4.76742,15908
4.77002,17092
4.77263,16328
4.77523,15965
4.77783,14459
4.78045,13465
4.78305,13796
4.78567,14271
4.78827,14485
4.79087,15588
4.79348,14141
4.79608,15719
4.79870,16898
4.80130,15467
4.80390,13794
4.80652,15033
4.80912,14931
4.81173,14694
4.81433,14935
4.81693,14037
4.81955,16077
4.82215,14954
4.82477,15465
4.82737,14092
4.82997,16021
4.83258,16175
4.83518,15168
4.83780,14970
4.84040,15867
4.84300,15034
4.84562,17044
4.84822,13630
4.85083,13172
4.85343,15686
4.85605,15016
4.85865,16291
4.86125,18114
4.86387,15918
4.86647,13262
4.86908,15002
4.87168,15785
4.87428,13776
4.87690,15184
4.87950,14619
4.88212,15331
4.88472,15012
4.88732,16688
4.88993,16738
4.89253,16114
4.89515,16628
4.89775,17037
4.90035,14806
4.90297,17241
4.90557,14803
4.90818,17036
4.91078,14829
4.91338,15846
4.91600,16575
4.91860,15234
4.92122,14238
4.92382,13996
4.92642,15396
4.92903,14500
4.93163,14511
4.93425,14593
4.93685,15683
4.93947,15728
4.94207,15265
4.94467,16422
4.94728,15230
4.94988,15255
4.95250,18686
4.95510,14424
4.95770,15246
4.96032,15473
4.96292,16986
4.96553,14979
4.96813,15019
4.97073,14480
4.97335,16461
4.97595,14674
4.97857,14038
4.98117,15457
4.98377,14490
4.98638,15839
4.98898,17365
4.99160,15651
4.99420,15908
4.99680,15229
4.99942,16227
5.00202,16309
5.00463,15748
5.00723,17698
5.00983,16428
5.01245,14086
5.01505,15658
5.01767,16007
5.02027,15100
5.02288,15217
5.02548,16818
5.02808,16844
5.03070,15697
5.03330,17066
5.03592,16694
5.03852,17948
5.04112,15630
5.04373,17024
5.04633,15570
5.04895,14936
5.05155,16299
5.05415,16723
5.05677,16682
5.05937,15402
5.06198,15256
5.06458,15333
5.06718,16566
5.06980,17136
5.07240,14854
5.07502,15589
5.07762,17819
5.08022,16242
5.08283,17626
5.08543,15273
5.08805,17135
5.09065,16642
5.09325,18969
5.09587,18425
5.09847,17742
5.10108,15381
5.10368,17576
5.10630,16761
5.10890,15735
5.11150,16382
5.11412,16164
5.11672,12924
5.11933,15895
5.12193,15981
5.12453,18222
5.12715,17265
5.12975,16519
5.13237,16877
5.13497,17546
5.13757,15956
5.14018,15684
5.14278,18357
5.14540,15746
5.14800,16467
5.15060,14979
5.15322,16414
5.15582,18978
5.15843,17848
5.16103,15380
5.16363,16693
5.16625,16695
5.16885,17057
5.17147,18036
5.17407,15367
5.17667,16459
5.17928,16244
5.18188,15539
5.18450,14785
5.18710,17390
5.18972,15548
5.19232,17994
5.19492,16725
5.19753,16149
5.20013,16242
5.20275,15981
5.20535,18155
5.20795,17530
5.21057,16822
5.21317,16369
5.21578,16902
5.21838,16692
5.22098,17337
5.22360,14991
5.22620,15241
5.22882,17131
5.23142,14679
5.23402,15608
5.23663,16007
5.23923,16486
5.24185,16048
5.24445,16956
5.24705,15955
5.24967,15164
5.25227,14692
5.25488,16670
5.25748,17076
5.26008,16219
5.26270,15057
5.26530,16742
5.26792,16117
5.27052,15185
5.27313,15761
5.27573,15244
5.27833,17610
5.28095,15305
5.28355,16702
5.28617,14616
5.28877,17441
5.29137,16969
5.29398,16805
5.29658,16202
5.29920,16959
5.30180,16042
5.30440,17686
5.30702,14454
5.30962,17059
5.31223,15185
5.31483,16479
5.31743,17560
5.32005,17673
5.32265,17123
5.32527,17574
5.32787,17459
5.33047,20209
5.33308,15584
5.33568,16178
5.33830,15777
5.34090,15813
5.34350,16619
5.34612,18037
5.34872,16453
5.35133,16783
5.35393,18387
5.35655,17483
5.35915,18487
5.36175,18184
5.36437,18017
5.36697,17875
5.36958,16790
5.37218,17660
5.37478,17499
5.37740,18581
5.38000,19539
5.38262,19395
5.38522,20274
5.38782,19739
5.39043,16583
5.39303,17633
5.39565,16285
5.39825,15555
5.40085,16427
5.40347,18682
5.40607,16671
5.40868,18805
5.41128,17494
5.41388,18710
5.41650,17214
5.41910,18687
5.42172,18428
5.42432,16312
5.42692,18860
5.42953,16700
5.43213,19141
5.43475,18249
5.43735,17485
5.43997,18173
5.44257,19756
5.44517,19670
5.44778,17485
5.45038,20332
5.45300,20502
5.45560,21044
5.45820,21690
5.46082,24650
5.46342,26674
5.46603,25085
5.46863,21659
5.47123,21159
5.47385,22161
5.47645,18644
5.47907,19655
5.48167,18889
5.48427,19849
5.48688,17985
5.48948,19655
5.49210,18212
5.49470,18732
5.49730,16751
5.49992,17378
5.50252,17557
5.50513,17364
5.50773,17431
5.51033,17464
5.51295,18472
5.51555,18045
5.51817,19257
5.52077,18028
5.52338,15947
5.52598,20454
5.52858,18373
5.53120,17500
5.53380,19319
5.53642,19075
5.53902,16615
5.54162,17142
5.54423,17047
5.54683,17531
5.54945,18393
5.55205,16417
5.55465,16333
5.55727,16147
5.55987,16156
5.56248,15894
5.56508,15079
5.56768,16296
5.57030,16556
5.57290,17630
5.57552,17238
5.57812,18293
5.58072,18448
5.58333,19024
5.58593,18267
5.58855,18080
5.59115,18070
5.59375,17849
5.59637,17093
5.59897,18410
5.60158,16248
5.60418,18073
5.60680,18028
5.60940,16059
5.61200,17712
5.61462,16887
5.61722,15747
5.61983,15731
5.62243,17435
5.62503,15631
5.62765,15069
5.63025,17245
5.63287,17044
5.63547,15908
5.63807,15430
5.64068,16835
5.64328,17555
5.64590,18455
5.64850,17639
5.65110,17789
5.65372,16168
5.65632,19777
5.65893,18160
5.66153,17158
5.66413,19630
5.66675,17499
5.66935,20651
5.67197,19548
5.67457,18600
5.67717,18331
5.67978,19195
5.68238,20512
5.68500,19206
5.68760,19243
5.69022,17712
5.69282,21976
5.69542,18884
5.69803,18396
5.70063,19626
5.70325,20851
5.70585,24501
5.70845,22633
5.71107,20613
5.71367,21511
5.71628,20079
5.71888,18394
5.72148,21183
5.72410,19120
5.72670,20813
5.72932,19420
5.73192,18756
5.73452,18424
5.73713,18886
5.73973,18611
5.74235,19790
5.74495,20520
5.74755,19406
5.75017,19539
5.75277,17596
5.75538,20434
5.75798,20383
5.76058,19680
5.76320,19814
5.76580,18544
5.76842,17702
5.77102,17242
5.77363,21228
5.77623,20184
5.77883,20026
5.78145,19597
5.78405,20761
5.78667,20205
5.78927,20185
5.79187,19665
5.79448,19358
5.79708,18593
5.79970,21231
5.80230,19109
5.80490,19857
5.80752,19217
5.81012,17597
5.81273,22800
5.81533,19591
5.81793,17425
5.82055,21478
5.82315,21069
5.82577,21480
5.82837,26156
5.83097,27145
5.83358,28775
5.83618,29685
5.83880,31700
5.84140,32369
5.84400,33917
5.84662,34513
5.84922,33871
5.85183,40355
5.85443,38995
5.85705,39891
5.85965,37935
5.86225,39448
5.86487,39107
5.86747,41249
5.87008,42033
5.87268,40842
5.87528,42815
5.87790,45842
5.88050,43856
5.88312,48559
5.88572,48848
5.88832,49148
5.89093,48604
5.89353,48580
5.89615,50492
5.89875,51399
5.90135,49916
5.90397,47303
5.90657,53791
5.90918,54519
5.91178,52565
5.91438,52974
5.91700,52069
5.91960,53906
5.92222,52366
5.92482,49442
5.92742,45033
5.93003,45665
5.93263,44609
5.93525,40919
5.93785,39824
5.94047,38994
5.94307,37927
5.94567,38830
5.94828,37695
5.95088,35061
5.95350,34757
5.95610,32319
5.95870,35851
5.96132,33705
5.96392,31658
5.96653,32704
5.96913,31344
5.97173,28247
5.97435,29485
5.97695,29077
5.97957,28312
5.98217,29443
5.98477,27145
5.98738,28154
5.98998,28817
5.99260,25351
5.99520,25593
5.99780,26504
6.00042,25623
6.00302,25997
6.00563,24848
6.00823,22630
6.01083,24729
6.01345,25130
6.01605,24642
6.01867,26188
6.02127,24994
6.02388,23679
6.02648,24180
6.02908,24841
6.03170,26251
6.03430,30144
6.03692,30253
6.03952,33173
6.04212,33329
6.04473,34392
6.04733,37743
6.04995,40844
6.05255,46210
6.05515,47878
6.05777,56029
6.06037,50760
6.06298,48182
6.06558,44358
6.06818,42603
6.07080,41386
6.07340,41836
6.07602,40970
6.07862,37075
6.08122,38398
6.08383,38840
6.08643,35953
6.08905,38127
6.09165,33476
6.09425,34758
6.09687,33494
6.09947,31740
6.10208,30457
6.10468,31513
6.10730,26048
6.10990,29544
6.11250,27116
6.11512,28403
6.11772,28861
6.12033,24254
6.12293,25572
6.12553,25561
6.12815,26806
6.13075,29354
6.13337,27921
6.13597,28413
6.13857,25526
6.14118,26196
6.14378,24907
6.14640,24590
6.14900,24176
6.15160,23164
6.15422,23674
6.15682,25087
6.15943,22990
6.16203,21579
6.16463,23275
6.16725,22752
6.16985,22103
6.17247,22903
6.17507,20724
6.17767,21464
6.18028,21815
6.18288,20177
6.18550,21705
6.18810,20300
6.19072,20237
6.19332,22313
6.19592,21164
6.19853,21217
6.20113,19634
6.20375,21237
6.20635,20750
6.20895,20077
6.21157,19409
6.21417,22186
6.21678,20137
6.21938,19415
6.22198,19582
6.22460,21850
6.22720,22741
6.22982,23376
6.23242,22258
6.23502,20038
6.23763,20872
6.24023,19829
6.24285,19816
6.24545,18366
6.24805,20036
6.25067,19253
6.25327,20189
6.25588,22146
6.25848,19363
6.26108,18625
6.26370,20817
6.26630,20298
6.26892,22727
6.27152,20040
6.27413,21689
6.27673,21747
6.27933,22096
6.28195,21457
6.28455,21660
6.28717,20228
6.28977,19278
6.29237,20351
6.29498,20032
6.29758,22150
6.30020,19062
6.30280,20089
6.30540,21540
6.30802,17921
6.31062,20474
6.31323,19935
6.31583,19582
6.31843,19745
6.32105,21515
6.32365,19214
6.32627,20337
6.32887,20835
6.33147,20726
6.33408,17619
6.33668,19222
6.33930,20552
6.34190,20690
6.34450,21241
6.34712,22662
6.34972,20397
6.35233,21447
6.35493,22023
6.35755,21396
6.36015,19793
6.36275,19467
6.36537,19456
6.36797,19951
6.37058,20043
6.37318,20262
6.37578,18336
6.37840,21024
6.38100,19870
6.38362,20195
6.38622,19002
6.38882,18473
6.39143,18960
6.39403,20466
6.39665,19252
6.39925,19847
6.40185,20372
6.40447,23286
6.40707,22988
6.40968,20571
6.41228,22129
6.41488,21612
6.41750,22843
6.42010,20774
6.42272,19216
6.42532,20828
6.42792,20030
6.43053,21050
6.43313,20461
6.43575,19578
6.43835,20415
6.44097,19775
6.44357,20612
6.44617,22306
6.44878,19819
6.45138,21754
6.45400,18991
6.45660,21443
6.45920,22265
6.46182,21105
6.46442,19972
6.46703,21382
6.46963,21122
6.47223,22545
6.47485,23280
6.47745,22089
6.48007,23697
6.48267,26778
6.48527,25267
6.48788,24583
6.49048,23831
6.49310,24817
6.49570,21974
6.49830,22443
6.50092,21669
6.50352,21223
6.50613,20529
6.50873,22021
6.51133,22309
6.51395,20078
6.51655,20575
6.51917,20724
6.52177,20010
6.52438,19637
6.52698,19616
6.52958,20375
6.53220,20289
6.53480,19887
6.53742,20006
6.54002,22805
6.54262,20016
6.54523,20836
6.54783,21342
6.55045,20446
6.55305,21100
6.55565,21097
6.55827,22739
6.56087,20440
6.56348,20670
6.56608,26983
6.56868,32123
6.57130,35804
6.57390,44912
6.57652,56757
6.57912,65555
6.58172,69798
6.58433,78789
6.58693,72044
6.58955,73663
6.59215,72127
6.59475,72063
6.59737,65821
6.59997,61268
6.60258,56356
6.60518,53506
6.60780,45042
6.61040,39397
6.61300,33231
6.61562,28332
6.61822,28961
6.62083,25235
6.62343,24156
6.62603,23491
6.62865,23097
6.63125,23383
6.63387,24412
6.63647,22798
6.63907,23097
6.64168,22995
6.64428,22563
6.64690,22869
6.64950,20021
6.65210,23850
6.65472,22720
6.65732,21842
6.65993,19694
6.66253,21569
6.66513,20758
6.66775,21739
6.67035,23277
6.67297,20300
6.67557,21555
6.67817,21772
6.68078,21316
6.68338,23907
6.68600,20591
6.68860,23636
6.69122,21492
6.69382,22149
6.69642,21745
6.69903,22129
6.70163,20604
6.70425,19201
6.70685,22003
6.70945,20805
6.71207,23163
6.71467,23005
6.71728,22408
6.71988,21569
6.72248,22996
6.72510,21812
6.72770,19236
6.73032,24307
6.73292,21021
6.73552,23102
6.73813,25295
6.74073,23000
6.74335,23952
6.74595,23857
6.74855,22730
6.75117,22660
6.75377,21611
6.75638,21945
6.75898,20690
6.76158,21804
6.76420,22441
6.76680,23982
6.76942,21857
6.77202,22140
6.77463,22234
6.77723,24641
6.77983,23723
6.78245,24174
6.78505,22219
6.78767,23700
6.79027,22186
6.79287,22325
6.79548,21236
6.79808,22199
6.80070,20782
6.80330,21620
6.80590,21867
6.80852,23257
6.81112,21270
6.81373,22831
6.81633,21422
6.81893,20563
6.82155,19950
6.82415,22792
6.82677,23267
6.82937,22266
6.83197,21684
6.83458,20252
6.83718,20609
6.83980,22148
6.84240,23335
6.84500,24801
6.84762,23453
6.85022,27211
6.85283,26498
6.85543,25480
6.85805,24567
6.86065,27205
6.86325,26186
6.86587,27288
6.86847,29293
6.87108,27112
6.87368,25832
6.87628,28142
6.87890,27017
6.88150,28491
6.88412,25456
6.88672,22212
6.88932,22806
6.89193,22436
6.89453,22524
6.89715,21010
6.89975,23592
6.90235,20272
6.90497,23741
6.90757,21818
6.91018,21176
6.91278,21461
6.91538,21035
6.91800,23056
6.92060,22503
6.92322,21500
6.92582,21599
6.92842,23225
6.93103,24186
6.93363,27738
6.93625,30942
6.93885,34515
6.94147,36125
6.94407,35860
6.94667,29288
6.94928,29875
6.95188,25715
6.95450,24670
6.95710,25749
6.95970,25146
6.96232,24735
6.96492,24335
6.96753,23433
6.97013,24146
6.97273,24612
6.97535,24102
6.97795,24125
6.98057,21695
6.98317,24498
6.98577,21435
6.98838,24046
6.99098,21619
6.99360,22117
6.99620,23368
6.99880,22156
7.00142,23588
7.00402,24176
7.00663,24407
7.00923,24547
7.01183,24019
7.01445,25740
7.01705,25959
7.01967,22706
7.02227,24349
7.02488,22406
7.02748,24266
7.03008,23852
7.03270,25330
7.03530,23415
7.03792,23745
7.04052,26840
7.04312,26897
7.04573,29310
7.04833,30332
7.05095,30967
7.05355,26343
7.05615,30018
7.05877,28629
7.06137,30230
7.06398,28987
7.06658,25725
7.06918,27431
7.07180,26869
7.07440,26356
7.07702,25077
7.07962,24748
7.08222,25452
7.08483,24968
7.08743,25029
7.09005,25252
7.09265,23201
7.09525,24009
7.09787,23881
7.10047,23009
7.10308,22895
7.10568,25021
7.10830,22703
7.11090,24048
7.11350,25941
7.11612,24382
7.11872,24282
7.12133,24208
7.12393,24072
7.12653,24799
7.12915,25451
7.13175,23244
7.13437,24618
7.13697,24202
7.13957,26479
7.14218,24928
7.14478,23092
7.14740,25950
7.15000,23896
7.15260,24934
7.15522,23621
7.15782,24981
7.16043,24475
7.16303,25137
7.16563,24832
7.16825,25139
7.17085,24674
7.17347,25866
7.17607,23318
7.17867,25589
7.18128,23114
7.18388,25674
7.18650,23500
7.18910,26515
7.19172,23508
7.19432,25372
7.19692,26270
7.19953,27317
7.20213,32487
7.20475,33214
7.20735,35075
7.20995,39891
7.21257,42426
7.21517,38059
7.21778,33085
7.22038,28543
7.22298,25363
7.22560,28577
7.22820,25236
7.23082,25789
7.23342,25538
7.23602,26652
7.23863,30524
7.24123,32709
7.24385,35629
7.24645,34340
7.24905,32263
7.25167,31805
7.25427,30272
7.25688,27874
7.25948,28424
7.26208,27828
7.26470,23879
7.26730,25483
7.26992,24735
7.27252,22523
7.27513,25725
7.27773,25306
7.28033,25011
7.28295,24093
7.28555,26758
7.28817,26174
7.29077,23189
7.29337,23942
7.29598,25540
7.29858,24982
7.30120,26351
7.30380,25584
7.30640,27185
7.30902,26024
7.31162,24078
7.31423,25980
7.31683,27996
7.31943,27787
7.32205,25517
7.32465,27777
7.32727,28062
7.32987,24702
7.33247,25709
7.33508,25497
7.33768,27080
7.34030,25076
7.34290,26322
7.34550,26158
7.34812,25206
7.35072,27057
7.35333,26247
7.35593,25411
7.35855,23814
7.36115,24979
7.36375,27356
7.36637,25824
7.36897,27364
7.37158,26859
7.37418,26901
7.37678,27511
7.37940,26503
7.38200,25666
7.38462,27327
7.38722,25151
7.38982,28690
7.39243,26564
7.39503,27053
7.39765,28937
7.40025,25322
7.40285,27312
7.40547,28686
7.40807,26794
7.41068,27496
7.41328,31667
7.41588,29453
7.41850,29389
7.42110,29328
7.42372,26806
7.42632,30247
7.42892,25730
7.43153,27230
7.43413,28419
7.43675,27834
7.43935,28349
7.44197,26625
7.44457,29012
7.44717,27897
7.44978,29548
7.45238,28344
7.45500,27019
7.45760,30637
7.46020,27596
7.46282,30109
7.46542,26164
7.46803,28861
7.47063,25923
7.47323,27314
7.47585,28122
7.47845,28058
7.48107,27994
7.48367,29276
7.48627,27181
7.48888,31646
7.49148,29153
7.49410,28602
7.49670,27748
7.49930,30033
7.50192,29732
7.50452,26601
7.50713,29439
7.50973,30680
7.51233,32592
7.51495,33593
7.51755,30976
7.52017,33261
7.52277,30953
7.52538,30528
7.52798,29762
7.53058,28825
7.53320,29658
7.53580,31200
7.53842,30817
7.54102,30018
7.54362,30209
7.54623,30332
7.54883,28903
7.55145,28155
7.55405,27925
7.55665,29386
7.55927,27766
7.56187,29882
7.56448,30336
7.56708,29786
7.56968,34321
7.57230,32411
7.57490,31053
7.57752,32217
7.58012,36841
7.58272,36532
7.58533,40781
7.58793,38762
7.59055,39074
7.59315,37634
7.59575,36258
7.59837,32049
7.60097,33945
7.60358,30587
7.60618,30401
7.60880,29250
7.61140,29125
7.61400,30620
7.61662,29665
7.61922,26207
7.62183,29902
7.62443,28368
7.62703,30622
7.62965,30949
7.63225,29511
7.63487,31397
7.63747,31474
7.64007,29371
7.64268,33663
7.64528,31262
7.64790,28855
7.65050,30773
7.65310,31025
7.65572,30040
7.65832,27675
7.66093,30840
7.66353,30954
7.66613,29643
7.66875,32389
7.67135,30175
7.67397,32497
7.67657,31953
7.67917,30583
7.68178,30036
7.68438,31085
7.68700,30685
7.68960,33427
7.69222,29120
7.69482,30805
7.69742,32617
7.70003,29912
7.70263,30082
7.70525,31156
7.70785,29053
7.71045,29164
7.71307,32314
7.71567,29759
7.71828,30882
7.72088,31830
7.72348,31644
7.72610,32119
7.72870,34212
7.73132,32195
7.73392,32637
7.73652,33235
7.73913,35145
7.74173,32683
7.74435,33919
7.74695,33963
7.74955,33029
7.75217,32143
7.75477,31829
7.75738,33682
7.75998,31909
7.76258,32228
7.76520,33608
7.76780,34065
7.77042,30788
7.77302,32909
7.77563,34937
7.77823,30950
7.78083,30618
7.78345,33639
7.78605,30462
7.78867,36900
7.79127,33756
7.79387,33867
7.79648,35242
7.79908,33676
7.80170,34540
7.80430,31591
7.80690,33222
7.80952,31824
7.81212,34671
7.81473,36513
7.81733,34858
7.81993,33338
7.82255,34958
7.82515,41335
7.82777,40698
7.83037,42684
7.83297,46522
7.83558,44845
7.83818,42099
7.84080,39978
7.84340,38015
7.84600,36475
7.84862,36746
7.85122,38889
7.85383,36162
7.85643,35685
7.85905,35651
7.86165,34784
7.86425,35669
7.86687,34213
7.86947,35470
7.87208,35322
7.87468,36877
7.87728,35984
7.87990,34418
7.88250,35869
7.88512,34863
7.88772,36630
7.89032,36032
7.89293,36888
7.89553,35061
7.89815,37052
7.90075,38143
7.90335,36755
7.90597,37827
7.90857,40675
7.91118,43124
7.91378,45310
7.91638,42425
7.91900,44407
7.92160,42603
7.92422,38919
7.92682,39402
7.92942,35577
7.93203,37669
7.93463,39597
7.93725,36819
7.93985,38138
7.94247,39855
7.94507,38436
7.94767,41184
7.95028,37323
7.95288,37947
7.95550,35904
7.95810,36742
7.96070,37806
7.96332,39891
7.96592,39782
7.96853,37867
7.97113,38802
7.97373,37306
7.97635,35306
7.97895,39807
7.98157,38731
7.98417,39427
7.98677,36105
7.98938,38792
7.99198,36917
7.99460,38904
7.99720,41279
7.99980,40647
8.00242,42389
8.00502,40625
8.00763,40086
8.01023,38244
8.01283,37173
8.01545,39279
8.01805,37831
8.02067,37609
8.02327,39859
8.02588,39856
8.02848,40898
8.03108,41554
8.03370,37779
8.03630,42729
8.03892,37027
8.04152,38990
8.04412,41839
8.04673,41302
8.04933,41621
8.05195,41764
8.05455,43143
8.05715,49340
8.05977,70223
8.06237,205437
8.06498,777486
8.06758,2348789
8.07018,5371063
8.07280,9645699
8.07540,1.415483E+07
8.07802,1.722531E+07
8.08062,1.763898E+07
8.08322,1.422405E+07
8.08583,8531227
8.08843,4130427
8.09105,1987469
8.09365,1114169
8.09625,744339
8.09887,564885
8.10147,447032
8.10408,380280
8.10668,310027
8.10930,277715
8.11190,245833
8.11450,210779
8.11712,194499
8.11972,179588
8.12233,167059
8.12493,150658
8.12753,145969
8.13015,129319
8.13275,122061
8.13537,113970
8.13797,114519
8.14057,109021
8.14318,104442
8.14578,99295
8.14840,94631
8.15100,89855
8.15360,91550
8.15622,81851
8.15882,82509
8.16143,81253
8.16403,80769
8.16663,74054
8.16925,75079
8.17185,78658
8.17447,72589
8.17707,70010
8.17967,74412
8.18228,73921
8.18488,68443
8.18750,65365
8.19010,67992
8.19272,65010
8.19532,64277
8.19792,63813
8.20053,61881
8.20313,64888
8.20575,64989
8.20835,71105
8.21095,65199
8.21357,68746
8.21617,68930
8.21878,67116
8.22138,65019
8.22398,60661
8.22660,61429
8.22920,59994
8.23182,58615
8.23442,59270
8.23702,60020
8.23963,59083
8.24223,57821
8.24485,59087
8.24745,57161
8.25005,58741
8.25267,57797
8.25527,57657
8.25788,57311
8.26048,54624
8.26308,58928
8.26570,56187
8.26830,54714
8.27092,57096
8.27352,58698
8.27613,57217
8.27873,57433
8.28133,57029
8.28395,57013
8.28655,57062
8.28917,58827
8.29177,56548
8.29437,58176
8.29698,61564
8.29958,57026
8.30220,57016
8.30480,61391
8.30740,58162
8.31002,62790
8.31262,60500
8.31523,59290
8.31783,62531
8.32043,61519
8.32305,59166
8.32565,58697
8.32827,63678
8.33087,59879
8.33347,60997
8.33608,58784
8.33868,60248
8.34130,59794
8.34390,59506
8.34650,58023
8.34912,59959
8.35172,56923
8.35433,60132
8.35693,61053
8.35955,58938
8.36215,63353
8.36475,61513
8.36737,65885
8.36997,59144
8.37258,59850
8.37518,63155
8.37778,62858
8.38040,66030
8.38300,63293
8.38562,62083
8.38822,61967
8.39082,65203
8.39343,65906
8.39603,65368
8.39865,63103
8.40125,63292
8.40385,61158
8.40647,63143
8.40907,64497
8.41168,64142
8.41428,68713
8.41688,66693
8.41950,66835
8.42210,67129
8.42472,66164
8.42732,68062
8.42992,66735
8.43253,65862
8.43513,67304
8.43775,68935
8.44035,67060
8.44297,64339
8.44557,66261
8.44817,69460
8.45078,69156
8.45338,67339
8.45600,67382
8.45860,68191
8.46120,66766
8.46382,67902
8.46642,68271
8.46903,71438
8.47163,73959
8.47423,73392
8.47685,75709
8.47945,78048
8.48207,77921
8.48467,79801
8.48727,76411
8.48988,76227
8.49248,71548
8.49510,68478
8.49770,73665
8.50030,72632
8.50292,71881
8.50552,77430
8.50813,82771
8.51073,83334
8.51333,93215
8.51595,98934
8.51855,97200
8.52117,89366
8.52377,83941
8.52638,80528
8.52898,76468
8.53158,77083
8.53420,77606
8.53680,75481
8.53942,77308
8.54202,77186
8.54462,76527
8.54723,82310
8.54983,80716
8.55245,79673
8.55505,78005
8.55765,82266
8.56027,81127
8.56287,81884
8.56548,81808
8.56808,82116
8.57068,82234
8.57330,83346
8.57590,83242
8.57852,84023
8.58112,83686
8.58372,84671
8.58633,80788
8.58893,81934
8.59155,83311
8.59415,86347
8.59675,86087
8.59937,87803
8.60197,87249
8.60458,85357
8.60718,91680
8.60980,81651
8.61240,87463
8.61500,87361
8.61762,88376
8.62022,85206
8.62283,89763
8.62543,93775
8.62803,89843
8.63065,86879
8.63325,92189
8.63587,88177
8.63847,94326
8.64107,91109
8.64368,91113
8.64628,93863
8.64890,95781
8.65150,88761
8.65410,95552
8.65672,96075
8.65932,92671
8.66193,97040
8.66453,94245
8.66713,96864
8.66975,94587
8.67235,96947
8.67497,100268
8.67757,100462
8.68017,96942
8.68278,100278
8.68538,103675
8.68800,106774
8.69060,105893
8.69322,110866
8.69582,112644
8.69842,108391
8.70103,107391
8.70363,104458
8.70625,114021
8.70885,112012
8.71145,118772
8.71407,124843
8.71667,122669
8.71928,129279
8.72188,122051
8.72448,125733
8.72710,125528
8.72970,128913
8.73232,123041
8.73492,126164
8.73752,118817
8.74013,122969
8.74273,120747
8.74535,119313
8.74795,113994
8.75055,115185
8.75317,115129
8.75577,111729
8.75838,111651
8.76098,118298
8.76358,117269
8.76620,119491
8.76880,117533
8.77142,118557
8.77402,116769
8.77663,111511
8.77923,118937
8.78183,113591
8.78445,119703
8.78705,118817
8.78967,120002
8.79227,119226
8.79487,124626
8.79748,124944
8.80008,118375
8.80270,117925
8.80530,121192
8.80790,127415
8.81052,117079
8.81312,121686
8.81573,119735
8.81833,121532
8.82093,120662
8.82355,123142
8.82615,118199
8.82877,122990
8.83137,122478
8.83397,118572
8.83658,125579
8.83918,121372
8.84180,123443
8.84440,125001
8.84700,120055
8.84962,121282
8.85222,127936
8.85483,125945
8.85743,130053
8.86005,126412
8.86265,128845
8.86525,126017
8.86787,127761
8.87047,128535
8.87308,126059
8.87568,125407
8.87828,125627
8.88090,130683
8.88350,127500
8.88612,127645
8.88872,132321
8.89132,130860
8.89393,133929
8.89653,127346
8.89915,132163
8.90175,129876
8.90435,130777
8.90697,127771
8.90957,131263
8.91218,129846
8.91478,132172
8.91738,131079
8.92000,130217
8.92260,127425
8.92522,128015
8.92782,134609
8.93042,135314
8.93303,133453
8.93563,139445
8.93825,139800
8.94085,140029
8.94347,136844
8.94607,136687
8.94867,135683
8.95128,137003
8.95388,135990
8.95650,138467
8.95910,133417
8.96170,135447
8.96432,135476
8.96692,129397
8.96953,134482
8.97213,135920
8.97473,141690
8.97735,138267
8.97995,136331
8.98257,141532
8.98517,142804
8.98777,136122
8.99038,135979
8.99298,139800
8.99560,137492
8.99820,140223
9.00080,138100
9.00342,136913
9.00602,143263
9.00863,141387
9.01123,139385
9.01383,139568
9.01645,140822
9.01905,140948
9.02167,142317
9.02427,142594
9.02688,138828
9.02948,137778
9.03208,132012
9.03470,139303
9.03730,143609
9.03992,141472
9.04252,141948
9.04512,138676
9.04773,136094
9.05033,136022
9.05295,138049
9.05555,144167
9.05815,135469
9.06077,138911
9.06337,139719
9.06598,136568
9.06858,139629
9.07118,144203
9.07380,144999
9.07640,137743
9.07902,144076
9.08162,146041
9.08422,138466
9.08683,138178
9.08943,142650
9.09205,141005
9.09465,142848
9.09725,137371
9.09987,138282
9.10247,140038
9.10508,140043
9.10768,142518
9.11030,139666
9.11290,141422
9.11550,139324
9.11812,140328
9.12072,143769
9.12333,145763
9.12593,141039
9.12853,147805
9.13115,147134
9.13375,146126
9.13637,141510
9.13897,141540
9.14157,139984
9.14418,148045
9.14678,145739
9.14940,143739
9.15200,140537
9.15460,139896
9.15722,141342
9.15982,144027
9.16243,141918
9.16503,142750
9.16763,141382
9.17025,143155
9.17285,141508
9.17547,139427
9.17807,143268
9.18067,141750
9.18328,145037
9.18588,143081
9.18850,146452
9.19110,145260
9.19372,145933
9.19632,144774
9.19892,151378
9.20153,152841
9.20413,151551
9.20675,151814
9.20935,147869
9.21195,150597
9.21457,147857
9.21717,140653
9.21978,146881
9.22238,138025
9.22498,143534
9.22760,140903
9.23020,144862
9.23282,144589
9.23542,142229
9.23802,140172
9.24063,140632
9.24323,145777
9.24585,139590
9.24845,138977
9.25105,138402
9.25367,140724
9.25627,142915
9.25888,144567
9.26148,140108
9.26408,141586
9.26670,143391
9.26930,145311
9.27192,142561
9.27452,142916
9.27713,135331
9.27973,142956
9.28233,139525
9.28495,137710
9.28755,141838
9.29017,144088
9.29277,141493
9.29537,140965
9.29798,143016
9.30058,143506
9.30320,140129
9.30580,141810
9.30840,142771
9.31102,145391
9.31362,140490
9.31623,144990
9.31883,146504
9.32143,137818
9.32405,144129
9.32665,141325
9.32927,142583
9.33187,143165
9.33447,141024
9.33708,139914
9.33968,139547
9.34230,142034
9.34490,141393
9.34750,142298
9.35012,139011
9.35272,144553
9.35533,140288
9.35793,134554
9.36055,140277
9.36315,138822
9.36575,141445
9.36837,143582
9.37097,149750
9.37358,145585
9.37618,140010
9.37878,145204
9.38140,142455
9.38400,138831
9.38662,143256
9.38922,139753
9.39182,140321
9.39443,141247
9.39703,140131
9.39965,140953
9.40225,140439
9.40485,139939
9.40747,140110
9.41007,143628
9.41268,139326
9.41528,142622
9.41788,137530
9.42050,140096
9.42310,138684
9.42572,141220
9.42832,145438
9.43092,142596
9.43353,140693
9.43613,141052
9.43875,143783
9.44135,141687
9.44397,141501
9.44657,139839
9.44917,140254
9.45178,139166
9.45438,140145
9.45700,143565
9.45960,146592
9.46220,138811
9.46482,144450
9.46742,144439
9.47003,146856
9.47263,144610
9.47523,141990
9.47785,144859
9.48045,143825
9.48307,148175
9.48567,143279
9.48827,142699
9.49088,137674
9.49348,141218
9.49610,141365
9.49870,142273
9.50130,139669
9.50392,143771
9.50652,142386
9.50913,142864
9.51173,144893
9.51433,136797
9.51695,138435
9.51955,137466
9.52217,140835
9.52477,144366
9.52738,141393
9.52998,137558
9.53258,142880
9.53520,145372
9.53780,137354
9.54042,140138
9.54302,137108
9.54562,141737
9.54823,141523
9.55083,140676
9.55345,142479
9.55605,138548
9.55865,139798
9.56127,141658
9.56387,140369
9.56648,147788
9.56908,144898
9.57168,140685
9.57430,139340
9.57690,143632
9.57952,140628
9.58212,141478
9.58472,140987
9.58733,141495
9.58993,137054
9.59255,140351
9.59515,138766
9.59775,139409
9.60037,142250
9.60297,140673
9.60558,143851
9.60818,140213
9.61080,143836
9.61340,140716
9.61600,143365
9.61862,142682
9.62122,142829
9.62383,140759
9.62643,142887
9.62903,143494
9.63165,139710
9.63425,143728
9.63687,147809
9.63947,141609
9.64207,140518
9.64468,146225
9.64728,141384
9.64990,138930
9.65250,139025
9.65510,143194
9.65772,140580
9.66032,140468
9.66293,140183
9.66553,141678
9.66813,139702
9.67075,143824
9.67335,137670
9.67597,141294
9.67857,138940
9.68118,136833
9.68378,136016
9.68638,137295
9.68900,140340
9.69160,143142
9.69422,143187
9.69682,137526
9.69942,141169
9.70203,143209
9.70463,138972
9.70725,140906
9.70985,140487
9.71245,142030
9.71507,141445
9.71767,143526
9.72028,142061
9.72288,143219
9.72548,142303
9.72810,139201
9.73070,144817
9.73332,136857
9.73592,139417
9.73852,139386
9.74113,136839
9.74373,142722
9.74635,144538
9.74895,141195
9.75155,140531
9.75417,146751
9.75677,141792
9.75938,140643
9.76198,140477
9.76460,143431
9.76720,142002
9.76980,141417
9.77242,142232
9.77502,135593
9.77763,137542
9.78023,142585
9.78283,137815
9.78545,140312
9.78805,140736
9.79067,139965
9.79327,141432
9.79587,141900
9.79848,140270
9.80108,139255
9.80370,141307
9.80630,142816
9.80890,142394
9.81152,142786
9.81412,146911
9.81673,148036
9.81933,143749
9.82193,142885
9.82455,146672
9.82715,145319
9.82977,141880
9.83237,145915
9.83497,142460
9.83758,137195
9.84018,142344
9.84280,141408
9.84540,144700
9.84802,145198
9.85062,142271
9.85322,139492
9.85583,141438
9.85843,140713
9.86105,137886
9.86365,140178
9.86625,137773
9.86887,141853
9.87147,144095
9.87408,142380
9.87668,141035
9.87928,141779
9.88190,137899
9.88450,141964
9.88712,140281
9.88972,143633
9.89232,143765
9.89493,137269
9.89753,140684
9.90015,149133
9.90275,138452
9.90535,142549
9.90797,143205
9.91057,143408
9.91318,142732
9.91578,140389
9.91838,140316
9.92100,137783
9.92360,142768
9.92622,141745
9.92882,137025
9.93143,142359
9.93403,138571
9.93663,143866
9.93925,138428
9.94185,138313
9.94447,142862
9.94707,140194
9.94967,139158
9.95228,141357
9.95488,141924
9.95750,143606
9.96010,136886
9.96270,140741
9.96532,142427
9.96792,139367
9.97053,143454
9.97313,141690
9.97573,143916
9.97835,143051
9.98095,139775
9.98357,141570
9.98617,139711
9.98877,138710
9.99138,136735
9.99398,139095
9.99660,142594
9.99920,139002
10.00180,139936
10.00442,144253
10.00702,143428
10.00963,136099
10.01223,140099
10.01485,139428
10.01745,142898
10.02005,140168
10.02267,144410
10.02527,132614
10.02788,142762
10.03048,141015
10.03308,142279
10.03570,140946
10.03830,143325
10.04092,140635
10.04352,139956
10.04612,137979
10.04873,139864
10.05133,141602
10.05395,140207
10.05655,143479
10.05915,137757
10.06177,136868
10.06437,143442
10.06698,138068
10.06958,139726
10.07218,140048
10.07480,144730
10.07740,142330
10.08002,136796
10.08262,140138
10.08522,136928
10.08783,143711
10.09043,139954
10.09305,137481
10.09565,139857
10.09827,136577
10.10087,135828
10.10347,141727
10.10608,138451
10.10868,138609
10.11130,141488
10.11390,138724
10.11650,142077
10.11912,136134
10.12172,138060
10.12433,140755
10.12693,135650
10.12953,139821
10.13215,141194
10.13475,134462
10.13737,140821
10.13997,140258
10.14257,136923
10.14518,140168
10.14778,140479
10.15040,146352
10.15300,137231
10.15560,141493
10.15822,137519
10.16082,142094
10.16343,143178
10.16603,140635
10.16863,143449
10.17125,142676
10.17385,140055
10.17647,140161
10.17907,142284
10.18168,143360
10.18428,139269
10.18688,140621
10.18950,137738
10.19210,141827
10.19472,140367
10.19732,137075
10.19992,140707
10.20253,141265
10.20513,137356
10.20775,141805
10.21035,145377
10.21295,136446
10.21557,143519
10.21817,145032
10.22078,141911
10.22338,138439
10.22598,140943
10.22860,139413
10.23120,138768
10.23382,142284
10.23642,139937
10.23902,138943
10.24163,139202
10.24423,140482
10.24685,138698
10.24945,142247
10.25205,139121
10.25467,138695
10.25727,138179
10.25988,138444
10.26248,141527
10.26510,143451
10.26770,144826
10.27030,140730
10.27292,140843
10.27552,140949
10.27813,139472
10.28073,144986
10.28333,143053
10.28595,145245
10.28855,148834
10.29117,135683
10.29377,141965
10.29637,139979
10.29898,142635
10.30158,147504
10.30420,144576
10.30680,146304
10.30940,141654
10.31202,140432
10.31462,139049
10.31723,137411
10.31983,139458
10.32243,139052
10.32505,141211
10.32765,136189
10.33027,141176
10.33287,146313
10.33547,140750
10.33808,143439
10.34068,141834
10.34330,141037
10.34590,141939
10.34852,142675
10.35112,141924
10.35372,141726
10.35633,137367
10.35893,140151
10.36155,138035
10.36415,140849
10.36675,138862
10.36937,133217
10.37197,144298
10.37458,148315
10.37718,138977
10.37978,141412
10.38240,141149
10.38500,139907
10.38762,142222
10.39022,137446
10.39282,144406
10.39543,142655
10.39803,138578
10.40065,140966
10.40325,142797
10.40585,139854
10.40847,140152
10.41107,145383
10.41368,145988
10.41628,148052
10.41888,140803
10.42150,140959
10.42410,142643
10.42672,137878
10.42932,142660
10.43193,141936
10.43453,142522
10.43713,137718
10.43975,141972
10.44235,141360
10.44497,137145
10.44757,135657
10.45017,140928
10.45278,138427
10.45538,141098
10.45800,139341
10.46060,134991
10.46320,137848
10.46582,141142
10.46842,136662
10.47103,140318
10.47363,141802
10.47623,144416
10.47885,137946
10.48145,139893
10.48407,139983
10.48667,139848
10.48927,143729
10.49188,139069
10.49448,137708
10.49710,139134
10.49970,138009
10.50230,138794
10.50492,138587
10.50752,140477
10.51013,141626
10.51273,138701
10.51535,138699
10.51795,141173
10.52055,136367
10.52317,132875
10.52577,141022
10.52838,138553
10.53098,141427
10.53358,138232
10.53620,139441
10.53880,141515
10.54142,138862
10.54402,142630
10.54662,138170
10.54923,140588
10.55183,136883
10.55445,138794
10.55705,140424
10.55965,137592
10.56227,144448
10.56487,142243
10.56748,141858
10.57008,139863
10.57268,141445
10.57530,136728
10.57790,141060
10.58052,136962
10.58312,143140
10.58572,145814
10.58833,139001
10.59093,138203
10.59355,144368
10.59615,138718
10.59877,141709
10.60137,144053
10.60397,146573
10.60658,144438
10.60918,146591
10.61180,137454
10.61440,140583
10.61700,145103
10.61962,141640
10.62222,140091
10.62483,141546
10.62743,141264
10.63003,143212
10.63265,139750
10.63525,144788
10.63787,144214
10.64047,137997
10.64307,142163
10.64568,143318
10.64828,137818
10.65090,139592
10.65350,141260
10.65610,137375
10.65872,139253
10.66132,140030
10.66393,140042
