D:\data\overige2021\rk\20200201rk_cocacase28x\B039738.D Mon Feb 01 22:14:52 2021
Start of data points
1.58965,9435
1.59225,10561
1.59485,8621
1.59747,10709
1.60007,9886
1.60268,10254
1.60528,9670
1.60790,8422
1.61050,9192
1.61310,10200
1.61572,10870
1.61832,9512
1.62093,8868
1.62353,10325
1.62613,9643
1.62875,9865
1.63135,9699
1.63397,9756
1.63657,9211
1.63917,11363
1.64178,9051
1.64438,9386
1.64700,9524
1.64960,9671
1.65220,9024
1.65482,8427
1.65742,9500
1.66003,10155
1.66263,9917
1.66523,9294
1.66785,8185
1.67045,9546
1.67307,9435
1.67567,8539
1.67827,7669
1.68088,9747
1.68348,9449
1.68610,7813
1.68870,9373
1.69132,8314
1.69392,8505
1.69652,8814
1.69913,8158
1.70173,7285
1.70435,7561
1.70695,8516
1.70955,8930
1.71217,7954
1.71477,6985
1.71738,9815
1.71998,6749
1.72258,7146
1.72520,8017
1.72780,8184
1.73042,8166
1.73302,8460
1.73562,7022
1.73823,7800
1.74083,6805
1.74345,7549
1.74605,7483
1.74865,8132
1.75127,8349
1.75387,6979
1.75648,6804
1.75908,7895
1.76168,7450
1.76430,8135
1.76690,6809
1.76952,6359
1.77212,6390
1.77473,7118
1.77733,6913
1.77993,6880
1.78255,8154
1.78515,6592
1.78777,7221
1.79037,7415
1.79297,6979
1.79558,7457
1.79818,6615
1.80080,7493
1.80340,6510
1.80600,6728
1.80862,7900
1.81122,5839
1.81383,5939
1.81643,5782
1.81903,6617
1.82165,7294
1.82425,5856
1.82687,8133
1.82947,6582
1.83207,5911
1.83468,7160
1.83728,6516
1.83990,6751
1.84250,6191
1.84510,7093
1.84772,6059
1.85032,6783
1.85293,6789
1.85553,6660
1.85815,5252
1.86075,5475
1.86335,5868
1.86597,6647
1.86857,6620
1.87118,6048
1.87378,5867
1.87638,6015
1.87900,7630
1.88160,6123
1.88422,5447
1.88682,6504
1.88942,6628
1.89203,6537
1.89463,7172
1.89725,6708
1.89985,7435
1.90245,6320
1.90507,6877
1.90767,5736
1.91028,5826
1.91288,6860
1.91548,6050
1.91810,6513
1.92070,5823
1.92332,6369
1.92592,5992
1.92852,5748
1.93113,5957
1.93373,5319
1.93635,4932
1.93895,5792
1.94157,5428
1.94417,5443
1.94677,5931
1.94938,4764
1.95198,6433
1.95460,5243
1.95720,5410
1.95980,5314
1.96242,5514
1.96502,5344
1.96763,5934
1.97023,6485
1.97283,5467
1.97545,5578
1.97805,4996
1.98067,5017
1.98327,6270
1.98587,5593
1.98848,5708
1.99108,5489
1.99370,5980
1.99630,4628
1.99890,4782
2.00152,6494
2.00412,5863
2.00673,5064
2.00933,6248
2.01193,5690
2.01455,6079
2.01715,6109
2.01977,6583
2.02237,4294
2.02498,5876
2.02758,5824
2.03018,6711
2.03280,6797
2.03540,5718
2.03802,7926
2.04062,13298
2.04322,17348
2.04583,19140
2.04843,22619
2.05105,22535
2.05365,24953
2.05625,22571
2.05887,20324
2.06147,20257
2.06408,19387
2.06668,18133
2.06928,18351
2.07190,15531
2.07450,14925
2.07712,14965
2.07972,14210
2.08232,12537
2.08493,12281
2.08753,11197
2.09015,11329
2.09275,11596
2.09535,11449
2.09797,10736
2.10057,11218
2.10318,9881
2.10578,12033
2.10840,10526
2.11100,9621
2.11360,8764
2.11622,11398
2.11882,8839
2.12143,8343
2.12403,9052
2.12663,8801
2.12925,9672
2.13185,9383
2.13447,7995
2.13707,7965
2.13967,8419
2.14228,10008
2.14488,8578
2.14750,7413
2.15010,8236
2.15270,7218
2.15532,7884
2.15792,8253
2.16053,6965
2.16313,9025
2.16573,7496
2.16835,7075
2.17095,6879
2.17357,8549
2.17617,8002
2.17877,6774
2.18138,6121
2.18398,7891
2.18660,7531
2.18920,7319
2.19182,6197
2.19442,6437
2.19702,7224
2.19963,7240
2.20223,7328
2.20485,7282
2.20745,6562
2.21005,6302
2.21267,6945
2.21527,6377
2.21788,7680
2.22048,5747
2.22308,6953
2.22570,7003
2.22830,6274
2.23092,5822
2.23352,6740
2.23612,6825
2.23873,5951
2.24133,6544
2.24395,6603
2.24655,6614
2.24915,6016
2.25177,6345
2.25437,7259
2.25698,7460
2.25958,6109
2.26218,7416
2.26480,5975
2.26740,6022
2.27002,5868
2.27262,5722
2.27523,6248
2.27783,5993
2.28043,6695
2.28305,5778
2.28565,5883
2.28827,6651
2.29087,6520
2.29347,6487
2.29608,4435
2.29868,5976
2.30130,6741
2.30390,4947
2.30650,6097
2.30912,5143
2.31172,6755
2.31433,5427
2.31693,5651
2.31953,5715
2.32215,6750
2.32475,5633
2.32737,6673
2.32997,6338
2.33257,5822
2.33518,4924
2.33778,5918
2.34040,5132
2.34300,6638
2.34560,5664
2.34822,5291
2.35082,3866
2.35343,4895
2.35603,5793
2.35865,5042
2.36125,5245
2.36385,5253
2.36647,4499
2.36907,5844
2.37168,5505
2.37428,7029
2.37688,5880
2.37950,5034
2.38210,6454
2.38472,5219
2.38732,6051
2.38992,5368
2.39253,5744
2.39513,4879
2.39775,5141
2.40035,4692
2.40295,5197
2.40557,6306
2.40817,4832
2.41078,6501
2.41338,6388
2.41598,5043
2.41860,5619
2.42120,5281
2.42382,5589
2.42642,4712
2.42902,6456
2.43163,5029
2.43423,5358
2.43685,5777
2.43945,5932
2.44207,5068
2.44467,5532
2.44727,5797
2.44988,6242
2.45248,5579
2.45510,5825
2.45770,5200
2.46030,5673
2.46292,6539
2.46552,6571
2.46813,6849
2.47073,7723
2.47333,6948
2.47595,7591
2.47855,8180
2.48117,7050
2.48377,8099
2.48637,8345
2.48898,7153
2.49158,6712
2.49420,6735
2.49680,6637
2.49940,6260
2.50202,6199
2.50462,7001
2.50723,6441
2.50983,5304
2.51243,5433
2.51505,6204
2.51765,7033
2.52027,6171
2.52287,5539
2.52548,7052
2.52808,5454
2.53068,5653
2.53330,6443
2.53590,4819
2.53852,6369
2.54112,5204
2.54372,4994
2.54633,6062
2.54893,5552
2.55155,5506
2.55415,5947
2.55675,5027
2.55937,5349
2.56197,5165
2.56458,5467
2.56718,5780
2.56978,4818
2.57240,5012
2.57500,4712
2.57762,4569
2.58022,5648
2.58282,4932
2.58543,5060
2.58803,5838
2.59065,6816
2.59325,6363
2.59585,5342
2.59847,6292
2.60107,6226
2.60368,4166
2.60628,6289
2.60890,5630
2.61150,5246
2.61410,6088
2.61672,5695
2.61932,5736
2.62193,4640
2.62453,5971
2.62713,4658
2.62975,5278
2.63235,5350
2.63497,6678
2.63757,6710
2.64017,6679
2.64278,5752
2.64538,6488
2.64800,6247
2.65060,5491
2.65320,5320
2.65582,4985
2.65842,4420
2.66103,4913
2.66363,3822
2.66623,4908
2.66885,4479
2.67145,4439
2.67407,6281
2.67667,4468
2.67927,5410
2.68188,4138
2.68448,5514
2.68710,6321
2.68970,5434
2.69232,3935
2.69492,4563
2.69752,4527
2.70013,5073
2.70273,5804
2.70535,4998
2.70795,4976
2.71055,4565
2.71317,4938
2.71577,5018
2.71838,5927
2.72098,5081
2.72358,5015
2.72620,4825
2.72880,4462
2.73142,4893
2.73402,4930
2.73662,5246
2.73923,4878
2.74183,5235
2.74445,6611
2.74705,4412
2.74965,4179
2.75227,5329
2.75487,4854
2.75748,5572
2.76008,5180
2.76268,4758
2.76530,4597
2.76790,4569
2.77052,6505
2.77312,5989
2.77573,4469
2.77833,5222
2.78093,4266
2.78355,5094
2.78615,5909
2.78877,4453
2.79137,5478
2.79397,5420
2.79658,4706
2.79918,5330
2.80180,5629
2.80440,5972
2.80700,4728
2.80962,4666
2.81222,4945
2.81483,4601
2.81743,4697
2.82003,4690
2.82265,5281
2.82525,4313
2.82787,4110
2.83047,4320
2.83307,4876
2.83568,5100
2.83828,5432
2.84090,5182
2.84350,4590
2.84610,5692
2.84872,4792
2.85132,4703
2.85393,4798
2.85653,5302
2.85915,7513
2.86175,5545
2.86435,6091
2.86697,4102
2.86957,4946
2.87218,4579
2.87478,4185
2.87738,5295
2.88000,4126
2.88260,5402
2.88522,4017
2.88782,4319
2.89042,4946
2.89303,5673
2.89563,4930
2.89825,5108
2.90085,4981
2.90345,4983
2.90607,4976
2.90867,3702
2.91128,4773
2.91388,4590
2.91648,4319
2.91910,4809
2.92170,5146
2.92432,6181
2.92692,5556
2.92952,4985
2.93213,4653
2.93473,5166
2.93735,6339
2.93995,5242
2.94257,5170
2.94517,4159
2.94777,5977
2.95038,5737
2.95298,6128
2.95560,4863
2.95820,4585
2.96080,5671
2.96342,4585
2.96602,4874
2.96863,4407
2.97123,5384
2.97383,6404
2.97645,7120
2.97905,5661
2.98167,6538
2.98427,5207
2.98687,4568
2.98948,3645
2.99208,4938
2.99470,6375
2.99730,4934
2.99990,5163
3.00252,4043
3.00512,4317
3.00773,4854
3.01033,4592
3.01293,4187
3.01555,5019
3.01815,5318
3.02077,4097
3.02337,4615
3.02598,4298
3.02858,4854
3.03118,4926
3.03380,5239
3.03640,5790
3.03902,5163
3.04162,4622
3.04422,3965
3.04683,3987
3.04943,4623
3.05205,5468
3.05465,5270
3.05725,4205
3.05987,4269
3.06247,5636
3.06508,4394
3.06768,3727
3.07028,4975
3.07290,3929
3.07550,3920
3.07812,5434
3.08072,5124
3.08332,4995
3.08593,4671
3.08853,4459
3.09115,4575
3.09375,6035
3.09635,5373
3.09897,4384
3.10157,4932
3.10418,4347
3.10678,4345
3.10940,4551
3.11200,4806
3.11460,4304
3.11722,4439
3.11982,3526
3.12243,5122
3.12503,4076
3.12763,4189
3.13025,4906
3.13285,5202
3.13547,4915
3.13807,6897
3.14067,6725
3.14328,8152
3.14588,8834
3.14850,9317
3.15110,8649
3.15370,9856
3.15632,9478
3.15892,8328
3.16153,8706
3.16413,9635
3.16673,10930
3.16935,9827
3.17195,9544
3.17457,9373
3.17717,9410
3.17977,8853
3.18238,9287
3.18498,8563
3.18760,7024
3.19020,8125
3.19282,9127
3.19542,8768
3.19802,7525
3.20063,8070
3.20323,9584
3.20585,8515
3.20845,8151
3.21105,9653
3.21367,7287
3.21627,7666
3.21888,7984
3.22148,7922
3.22408,7669
3.22670,7912
3.22930,7404
3.23192,7933
3.23452,8600
3.23712,8276
3.23973,6342
3.24233,8065
3.24495,7679
3.24755,6757
3.25015,7365
3.25277,8649
3.25537,7119
3.25798,6659
3.26058,8086
3.26318,6085
3.26580,6792
3.26840,7679
3.27102,6898
3.27362,5541
3.27623,7064
3.27883,6064
3.28143,6122
3.28405,6541
3.28665,7229
3.28927,6103
3.29187,7234
3.29447,6610
3.29708,6948
3.29968,5698
3.30230,6685
3.30490,6083
3.30750,6175
3.31012,6375
3.31272,5091
3.31533,5620
3.31793,5408
3.32053,6066
3.32315,6581
3.32575,6922
3.32837,6825
3.33097,6788
3.33357,5754
3.33618,5958
3.33878,6301
3.34140,7205
3.34400,4902
3.34660,6314
3.34922,5734
3.35182,6489
3.35443,6330
3.35703,5037
3.35965,5983
3.36225,5668
3.36485,5760
3.36747,5544
3.37007,4882
3.37268,4772
3.37528,6923
3.37788,5112
3.38050,6161
3.38310,6014
3.38572,5988
3.38832,6655
3.39092,4895
3.39353,5115
3.39613,5459
3.39875,5343
3.40135,5861
3.40395,6065
3.40657,7064
3.40917,7216
3.41178,6872
3.41438,7296
3.41698,6660
3.41960,6344
3.42220,6162
3.42482,5943
3.42742,6314
3.43002,6901
3.43263,7266
3.43523,6677
3.43785,7007
3.44045,6635
3.44307,5812
3.44567,6224
3.44827,6621
3.45088,6729
3.45348,5051
3.45610,5517
3.45870,6206
3.46130,5897
3.46392,6690
3.46652,6325
3.46913,6058
3.47173,6372
3.47433,7153
3.47695,5386
3.47955,6093
3.48217,5538
3.48477,6318
3.48737,7495
3.48998,6384
3.49258,6333
3.49520,6425
3.49780,6103
3.50040,6349
3.50302,6847
3.50562,7171
3.50823,6730
3.51083,7814
3.51343,11059
3.51605,20683
3.51865,41092
3.52127,62560
3.52387,84632
3.52648,89133
3.52908,77633
3.53168,60376
3.53430,44200
3.53690,30578
3.53952,25191
3.54212,20413
3.54472,18891
3.54733,18011
3.54993,12824
3.55255,14165
3.55515,13476
3.55775,12017
3.56037,11303
3.56297,11998
3.56558,12236
3.56818,12839
3.57078,10988
3.57340,10779
3.57600,10834
3.57862,10701
3.58122,10215
3.58382,11756
3.58643,10368
3.58903,8827
3.59165,9973
3.59425,10848
3.59685,12517
3.59947,12949
3.60207,10899
3.60468,11350
3.60728,10991
3.60990,12323
3.61250,11453
3.61510,11194
3.61772,10556
3.62032,11394
3.62293,9791
3.62553,10598
3.62813,10619
3.63075,9789
3.63335,9802
3.63597,11888
3.63857,13175
3.64117,14598
3.64378,13030
3.64638,13953
3.64900,12276
3.65160,10208
3.65420,11571
3.65682,10517
3.65942,11225
3.66203,10847
3.66463,11885
3.66723,11297
3.66985,11197
3.67245,10207
3.67507,9160
3.67767,12093
3.68027,8811
3.68288,10536
3.68548,11416
3.68810,9433
3.69070,10717
3.69332,9557
3.69592,8211
3.69852,11483
3.70113,10280
3.70373,9175
3.70635,9864
3.70895,10850
3.71155,9948
3.71417,9151
3.71677,10258
3.71938,7917
3.72198,8828
3.72458,9785
3.72720,9017
3.72980,9045
3.73242,7811
3.73502,9338
3.73762,8978
3.74023,9365
3.74283,8573
3.74545,8027
3.74805,8511
3.75065,9405
3.75327,9708
3.75587,9230
3.75848,8444
3.76108,8191
3.76368,11106
3.76630,8387
3.76890,9916
3.77152,8859
3.77412,8638
3.77673,8276
3.77933,8915
3.78193,7671
3.78455,9116
3.78715,8276
3.78977,8900
3.79237,9575
3.79497,9962
3.79758,11703
3.80018,11825
3.80280,9814
3.80540,11567
3.80800,8640
3.81062,10383
3.81322,11778
3.81583,9485
3.81843,11290
3.82103,9008
3.82365,10460
3.82625,8795
3.82887,7996
3.83147,8353
3.83407,8138
3.83668,8214
3.83928,8822
3.84190,8387
3.84450,8990
3.84710,8613
3.84972,9138
3.85232,8599
3.85493,10369
3.85753,9703
3.86015,10069
3.86275,7572
3.86535,9513
3.86797,8696
3.87057,8384
3.87318,7961
3.87578,9240
3.87838,8722
3.88100,9033
3.88360,9311
3.88622,9313
3.88882,10979
3.89142,8621
3.89403,8305
3.89663,8318
3.89925,9362
3.90185,10249
3.90445,8517
3.90707,10249
3.90967,8824
3.91228,9730
3.91488,9245
3.91748,8951
3.92010,8312
3.92270,10686
3.92532,9806
3.92792,13171
3.93052,14811
3.93313,17287
3.93573,20634
3.93835,22641
3.94095,21219
3.94357,17259
3.94617,14790
3.94877,11016
3.95138,12865
3.95398,10923
3.95660,10763
3.95920,9124
3.96180,9365
3.96442,9407
3.96702,8056
3.96963,9414
3.97223,10838
3.97483,9418
3.97745,10921
3.98005,8796
3.98267,9120
3.98527,8307
3.98787,8251
3.99048,8814
3.99308,8760
3.99570,10000
3.99830,10378
4.00090,8926
4.00352,7594
4.00612,9257
4.00873,9219
4.01133,8952
4.01393,8427
4.01655,9661
4.01915,10240
4.02177,10006
4.02437,9249
4.02698,8936
4.02958,9452
4.03218,9332
4.03480,9755
4.03740,7746
4.04002,8652
4.04262,9108
4.04522,7437
4.04783,8507
4.05043,9139
4.05305,10074
4.05565,8367
4.05825,11239
4.06087,8924
4.06347,9131
4.06608,7674
4.06868,8463
4.07128,8347
4.07390,8193
4.07650,9013
4.07912,9923
4.08172,9895
4.08432,9020
4.08693,9039
4.08953,8458
4.09215,7759
4.09475,8545
4.09735,9045
4.09997,10029
4.10257,9302
4.10518,9222
4.10778,8277
4.11040,9382
4.11300,9770
4.11560,8484
4.11822,8133
4.12082,8825
4.12343,9245
4.12603,6960
4.12863,8647
4.13125,8673
4.13385,9669
4.13647,8027
4.13907,10840
4.14167,8401
4.14428,9044
4.14688,8474
4.14950,9904
4.15210,8545
4.15470,7336
4.15732,9519
4.15992,7950
4.16253,10095
4.16513,8749
4.16773,8054
4.17035,8434
4.17295,8572
4.17557,9263
4.17817,11034
4.18077,9841
4.18338,6685
4.18598,8803
4.18860,7998
4.19120,9012
4.19382,8300
4.19642,8096
4.19902,8088
4.20163,8235
4.20423,6808
4.20685,9285
4.20945,8268
4.21205,8484
4.21467,9450
4.21727,8210
4.21988,8814
4.22248,9339
4.22508,8828
4.22770,8455
4.23030,9111
4.23292,7974
4.23552,9254
4.23812,8708
4.24073,9164
4.24333,9835
4.24595,7894
4.24855,8006
4.25115,8356
4.25377,8725
4.25637,7084
4.25898,8651
4.26158,9220
4.26418,8638
4.26680,7384
4.26940,7716
4.27202,8607
4.27462,7694
4.27723,8899
4.27983,8290
4.28243,6578
4.28505,8435
4.28765,10494
4.29027,7961
4.29287,9357
4.29547,8991
4.29808,7192
4.30068,8347
4.30330,8018
4.30590,8087
4.30850,8661
4.31112,7674
4.31372,8984
4.31633,7667
4.31893,7930
4.32153,9829
4.32415,9472
4.32675,9032
4.32937,8682
4.33197,8733
4.33457,8999
4.33718,8686
4.33978,8492
4.34240,8292
4.34500,9477
4.34762,7725
4.35022,8436
4.35282,8628
4.35543,7842
4.35803,8998
4.36065,9065
4.36325,8072
4.36585,8537
4.36847,7870
4.37107,9093
4.37368,7614
4.37628,7580
4.37888,7066
4.38150,7892
4.38410,8299
4.38672,8727
4.38932,8831
4.39192,8938
4.39453,8085
4.39713,8810
4.39975,8850
4.40235,9066
4.40495,9069
4.40757,9409
4.41017,10451
4.41278,10223
4.41538,9942
4.41798,10173
4.42060,8343
4.42320,8595
4.42582,8004
4.42842,9742
4.43103,9819
4.43363,7564
4.43623,8364
4.43885,8852
4.44145,8785
4.44407,9243
4.44667,8215
4.44927,7978
4.45188,7644
4.45448,8002
4.45710,8430
4.45970,9576
4.46230,9339
4.46492,9718
4.46752,8567
4.47013,9010
4.47273,8371
4.47533,8042
4.47795,9520
4.48055,9308
4.48317,7507
4.48577,7715
4.48837,6996
4.49098,8768
4.49358,7541
4.49620,8285
4.49880,8189
4.50140,8892
4.50402,8462
4.50662,9050
4.50923,9109
4.51183,10447
4.51443,7957
4.51705,9711
4.51965,8659
4.52227,7555
4.52487,9658
4.52748,9579
4.53008,7213
4.53268,8139
4.53530,7689
4.53790,8888
4.54052,9241
4.54312,8388
4.54572,8636
4.54833,10477
4.55093,5710
4.55355,7885
4.55615,9179
4.55875,9433
4.56137,8130
4.56397,8719
4.56658,7180
4.56918,8394
4.57178,7162
4.57440,7645
4.57700,8293
4.57962,8913
4.58222,8232
4.58482,8419
4.58743,8305
4.59003,7671
4.59265,8085
4.59525,7664
4.59787,10073
4.60047,9176
4.60307,7887
4.60568,8600
4.60828,9778
4.61090,8718
4.61350,9446
4.61610,7479
4.61872,8492
4.62132,8056
4.62393,8122
4.62653,9119
4.62913,9081
4.63175,7475
4.63435,8013
4.63697,7925
4.63957,8459
4.64217,8231
4.64478,7613
4.64738,8460
4.65000,8721
4.65260,9053
4.65520,7989
4.65782,8172
4.66042,9362
4.66303,7647
4.66563,8014
4.66823,7807
4.67085,7752
4.67345,8507
4.67607,8116
4.67867,7532
4.68128,7996
4.68388,7058
4.68648,7626
4.68910,8107
4.69170,7590
4.69432,8709
4.69692,8952
4.69952,7886
4.70213,9330
4.70473,9245
4.70735,8912
4.70995,8723
4.71255,7797
4.71517,8417
4.71777,8196
4.72038,8381
4.72298,8904
4.72558,9453
4.72820,8043
4.73080,8242
4.73342,8282
4.73602,7357
4.73862,9139
4.74123,9341
4.74383,8018
4.74645,8330
4.74905,7610
4.75165,9980
4.75427,8449
4.75687,7921
4.75948,8960
4.76208,8057
4.76470,8911
4.76730,9078
4.76990,8712
4.77252,8234
4.77512,7217
4.77773,8639
4.78033,8871
4.78293,8637
4.78555,8515
4.78815,8281
4.79077,9566
4.79337,9434
4.79597,8658
4.79858,8481
4.80118,8184
4.80380,8336
4.80640,8728
4.80900,9003
4.81162,7088
4.81422,7667
4.81683,8763
4.81943,7514
4.82203,8686
4.82465,8426
4.82725,8350
4.82987,8362
4.83247,7399
4.83507,7550
4.83768,8694
4.84028,10387
4.84290,7669
4.84550,8143
4.84812,8313
4.85072,7952
4.85332,7317
4.85593,7524
4.85853,8842
4.86115,8626
4.86375,8441
4.86635,9834
4.86897,8033
4.87157,7392
4.87418,7940
4.87678,8887
4.87938,7232
4.88200,9132
4.88460,7914
4.88722,8219
4.88982,8518
4.89242,9240
4.89503,7975
4.89763,8534
4.90025,8234
4.90285,8537
4.90545,8995
4.90807,9193
4.91067,8533
4.91328,7185
4.91588,8405
4.91848,7573
4.92110,7768
4.92370,7211
4.92632,8948
4.92892,8561
4.93153,7353
4.93413,8345
4.93673,8857
4.93935,8917
4.94195,7337
4.94457,8197
4.94717,8417
4.94977,7129
4.95238,7306
4.95498,8853
4.95760,8930
4.96020,9516
4.96280,10091
4.96542,7249
4.96802,9367
4.97063,9078
4.97323,8769
4.97583,9221
4.97845,9268
4.98105,8189
4.98367,9434
4.98627,8451
4.98887,8344
4.99148,7787
4.99408,9140
4.99670,9185
4.99930,8164
5.00190,8891
5.00452,7043
5.00712,7485
5.00973,8880
5.01233,8453
5.01495,7711
5.01755,8152
5.02015,8895
5.02277,7890
5.02537,8827
5.02798,8412
5.03058,7187
5.03318,8732
5.03580,7978
5.03840,7048
5.04102,8969
5.04362,7845
5.04622,9562
5.04883,8906
5.05143,7824
5.05405,7916
5.05665,9451
5.05925,9052
5.06187,8272
5.06447,8549
5.06708,8607
5.06968,9289
5.07228,9066
5.07490,9975
5.07750,8946
5.08012,9229
5.08272,7970
5.08532,9426
5.08793,9416
5.09053,8742
5.09315,9572
5.09575,8761
5.09837,10628
5.10097,7584
5.10357,7990
5.10618,10206
5.10878,8432
5.11140,7903
5.11400,8875
5.11660,8926
5.11922,9275
5.12182,7755
5.12443,7976
5.12703,8192
5.12963,8718
5.13225,8141
5.13485,9292
5.13747,8182
5.14007,6679
5.14267,8839
5.14528,9003
5.14788,7829
5.15050,7799
5.15310,7481
5.15570,10148
5.15832,8256
5.16092,9054
5.16353,8998
5.16613,8733
5.16873,8857
5.17135,9546
5.17395,7627
5.17657,8648
5.17917,9165
5.18178,7806
5.18438,8336
5.18698,9375
5.18960,8049
5.19220,9347
5.19482,8188
5.19742,8803
5.20002,7352
5.20263,10223
5.20523,8757
5.20785,9072
5.21045,9324
5.21305,8704
5.21567,8921
5.21827,8128
5.22088,8754
5.22348,8474
5.22608,8222
5.22870,8174
5.23130,8629
5.23392,8706
5.23652,7816
5.23912,7905
5.24173,7273
5.24433,8391
5.24695,7885
5.24955,8661
5.25215,7595
5.25477,8241
5.25737,8715
5.25998,8425
5.26258,8435
5.26520,8510
5.26780,7555
5.27040,9777
5.27302,9333
5.27562,9370
5.27823,9100
5.28083,7988
5.28343,7977
5.28605,9711
5.28865,9583
5.29127,8166
5.29387,9189
5.29647,8564
5.29908,9984
5.30168,9094
5.30430,9396
5.30690,8735
5.30950,7609
5.31212,7974
5.31472,9328
5.31733,8795
5.31993,8747
5.32253,9268
5.32515,8563
5.32775,8374
5.33037,9575
5.33297,7707
5.33557,7751
5.33818,8646
5.34078,9014
5.34340,9425
5.34600,8175
5.34862,7212
5.35122,9168
5.35382,8155
5.35643,8970
5.35903,9487
5.36165,9670
5.36425,8738
5.36685,8036
5.36947,8826
5.37207,8711
5.37468,9033
5.37728,10206
5.37988,10048
5.38250,8443
5.38510,9844
5.38772,8958
5.39032,10279
5.39292,9326
5.39553,9366
5.39813,8930
5.40075,8773
5.40335,9715
5.40595,8661
5.40857,8012
5.41117,8041
5.41378,9916
5.41638,9558
5.41898,9335
5.42160,7357
5.42420,9330
5.42682,8915
5.42942,7199
5.43203,7660
5.43463,8224
5.43723,8657
5.43985,9497
5.44245,8603
5.44507,8968
5.44767,9203
5.45027,10763
5.45288,10382
5.45548,12997
5.45810,12891
5.46070,12513
5.46330,13154
5.46592,10363
5.46852,10927
5.47113,11040
5.47373,9753
5.47633,11574
5.47895,9538
5.48155,10611
5.48417,9628
5.48677,10154
5.48937,7860
5.49198,9712
5.49458,9661
5.49720,9757
5.49980,8819
5.50240,9180
5.50502,9326
5.50762,9299
5.51023,8254
5.51283,8712
5.51545,9872
5.51805,11054
5.52065,9775
5.52327,9395
5.52587,9658
5.52848,7871
5.53108,8206
5.53368,8661
5.53630,8703
5.53890,8803
5.54152,9101
5.54412,8600
5.54672,8829
5.54933,10459
5.55193,8131
5.55455,7836
5.55715,9730
5.55975,9292
5.56237,9869
5.56497,9849
5.56758,7762
5.57018,8874
5.57278,9161
5.57540,9067
5.57800,9094
5.58062,8457
5.58322,9912
5.58582,7732
5.58843,8694
5.59103,9130
5.59365,8847
5.59625,8933
5.59887,9254
5.60147,9223
5.60407,8894
5.60668,8188
5.60928,8384
5.61190,9503
5.61450,8876
5.61710,9835
5.61972,9530
5.62232,9809
5.62493,9653
5.62753,9564
5.63013,9413
5.63275,9335
5.63535,8208
5.63797,10427
5.64057,9256
5.64317,9913
5.64578,9817
5.64838,9460
5.65100,9242
5.65360,9455
5.65620,8990
5.65882,9112
5.66142,8416
5.66403,10643
5.66663,8635
5.66923,9394
5.67185,9119
5.67445,9190
5.67707,7969
5.67967,9412
5.68228,9907
5.68488,10013
5.68748,9618
5.69010,8986
5.69270,9562
5.69532,9842
5.69792,10290
5.70052,10733
5.70313,13412
5.70573,11365
5.70835,11670
5.71095,12151
5.71355,9720
5.71617,10864
5.71877,9048
5.72138,7668
5.72398,10353
5.72658,9575
5.72920,9284
5.73180,10254
5.73442,8552
5.73702,9506
5.73962,9181
5.74223,9654
5.74483,9672
5.74745,9417
5.75005,10234
5.75265,10668
5.75527,8428
5.75787,9538
5.76048,9353
5.76308,10145
5.76570,9200
5.76830,8719
5.77090,9744
5.77352,9983
5.77612,9772
5.77873,8358
5.78133,10595
5.78393,9036
5.78655,10305
5.78915,8963
5.79177,9495
5.79437,9453
5.79697,10197
5.79958,8974
5.80218,10608
5.80480,8742
5.80740,9531
5.81000,8909
5.81262,10691
5.81522,15523
5.81783,19476
5.82043,26308
5.82303,33624
5.82565,32702
5.82825,28042
5.83087,20071
5.83347,17244
5.83607,13693
5.83868,14663
5.84128,15171
5.84390,15322
5.84650,14443
5.84912,14273
5.85172,13163
5.85432,10564
5.85693,9948
5.85953,10151
5.86215,10422
5.86475,10050
5.86735,10756
5.86997,9785
5.87257,10695
5.87518,9990
5.87778,9530
5.88038,10461
5.88300,9142
5.88560,9714
5.88822,10593
5.89082,9562
5.89342,11288
5.89603,10067
5.89863,9337
5.90125,10202
5.90385,9573
5.90645,9329
5.90907,9196
5.91167,11311
5.91428,9195
5.91688,10324
5.91948,9480
5.92210,9337
5.92470,9802
5.92732,10956
5.92992,10696
5.93253,12435
5.93513,14303
5.93773,12548
5.94035,13445
5.94295,13594
5.94557,12363
5.94817,13247
5.95077,12764
5.95338,13118
5.95598,13427
5.95860,12754
5.96120,11563
5.96380,12252
5.96642,12498
5.96902,10411
5.97163,9025
5.97423,11154
5.97683,11056
5.97945,10783
5.98205,11286
5.98467,10424
5.98727,11555
5.98987,11992
5.99248,11033
5.99508,12203
5.99770,10799
6.00030,11056
6.00290,11616
6.00552,11416
6.00812,11744
6.01073,10740
6.01333,11236
6.01595,11971
6.01855,11423
6.02115,11851
6.02377,11030
6.02637,10839
6.02898,11478
6.03158,11232
6.03418,12042
6.03680,11296
6.03940,11532
6.04202,11687
6.04462,11591
6.04722,15093
6.04983,17354
6.05243,18814
6.05505,21302
6.05765,19826
6.06025,19419
6.06287,19767
6.06547,16503
6.06808,16409
6.07068,14786
6.07328,15203
6.07590,15162
6.07850,13257
6.08112,13632
6.08372,13606
6.08632,13746
6.08893,12052
6.09153,11476
6.09415,12184
6.09675,13095
6.09937,12292
6.10197,12772
6.10457,12539
6.10718,14126
6.10978,11507
6.11240,12953
6.11500,12439
6.11760,13727
6.12022,12577
6.12282,11482
6.12543,12041
6.12803,13708
6.13063,12020
6.13325,14241
6.13585,13433
6.13847,13275
6.14107,12608
6.14367,11608
6.14628,12305
6.14888,11846
6.15150,10933
6.15410,11798
6.15670,10535
6.15932,12718
6.16192,11164
6.16453,11194
6.16713,11946
6.16973,11136
6.17235,10829
6.17495,12821
6.17757,14822
6.18017,12148
6.18278,12542
6.18538,10986
6.18798,12666
6.19060,12491
6.19320,11139
6.19582,11507
6.19842,11508
6.20102,10824
6.20363,11576
6.20623,11688
6.20885,11668
6.21145,9763
6.21405,9946
6.21667,11695
6.21927,11085
6.22188,10945
6.22448,10568
6.22708,10019
6.22970,9895
6.23230,10303
6.23492,11208
6.23752,10452
6.24012,10279
6.24273,9996
6.24533,11178
6.24795,10487
6.25055,11692
6.25315,11242
6.25577,10391
6.25837,11220
6.26098,11255
6.26358,10054
6.26620,12352
6.26880,11229
6.27140,10375
6.27402,10674
6.27662,12292
6.27923,12646
6.28183,10244
6.28443,11243
6.28705,10083
6.28965,11206
6.29227,11874
6.29487,10843
6.29747,11043
6.30008,11321
6.30268,10114
6.30530,9103
6.30790,10329
6.31050,11896
6.31312,12271
6.31572,11174
6.31833,10050
6.32093,10983
6.32353,11208
6.32615,10188
6.32875,10444
6.33137,11170
6.33397,10199
6.33657,10408
6.33918,11578
6.34178,9339
6.34440,11984
6.34700,11447
6.34962,12147
6.35222,11255
6.35482,12307
6.35743,11884
6.36003,12944
6.36265,11485
6.36525,9403
6.36785,11459
6.37047,12400
6.37307,10143
6.37568,10980
6.37828,11972
6.38088,10003
6.38350,12381
6.38610,11419
6.38872,10522
6.39132,10543
6.39392,10876
6.39653,11905
6.39913,11091
6.40175,11794
6.40435,12160
6.40695,11977
6.40957,12579
6.41217,15255
6.41478,11122
6.41738,11489
6.41998,11646
6.42260,10767
6.42520,10838
6.42782,11306
6.43042,11162
6.43303,10395
6.43563,9773
6.43823,11420
6.44085,11549
6.44345,12120
6.44607,11350
6.44867,9902
6.45127,11039
6.45388,10842
6.45648,11452
6.45910,10025
6.46170,10935
6.46430,9676
6.46692,11446
6.46952,11051
6.47213,10221
6.47473,11124
6.47733,11608
6.47995,12088
6.48255,11013
6.48517,11958
6.48777,13515
6.49037,12500
6.49298,15248
6.49558,25194
6.49820,55222
6.50080,104175
6.50340,181920
6.50602,233924
6.50862,243596
6.51123,199496
6.51383,132145
6.51645,83475
6.51905,56136
6.52165,41219
6.52427,36232
6.52687,31847
6.52948,30738
6.53208,26040
6.53468,25796
6.53730,23016
6.53990,24293
6.54252,21680
6.54512,21086
6.54772,20683
6.55033,21620
6.55293,19909
6.55555,20776
6.55815,19060
6.56075,17053
6.56337,17157
6.56597,17836
6.56858,18436
6.57118,16909
6.57378,16159
6.57640,16233
6.57900,17100
6.58162,17818
6.58422,18357
6.58682,26191
6.58943,61143
6.59203,228049
6.59465,793015
6.59725,2473047
6.59987,5915805
6.60247,1.071422E+07
6.60507,1.607098E+07
6.60768,2.124356E+07
6.61028,2.695588E+07
6.61290,3.166009E+07
6.61550,3.506919E+07
6.61810,3.557852E+07
6.62072,2.770093E+07
6.62332,1.180784E+07
6.62593,2721036
6.62853,755774
6.63113,368203
6.63375,247743
6.63635,185096
6.63897,150829
6.64157,127473
6.64417,116697
6.64678,99431
6.64938,95598
6.65200,84480
6.65460,77682
6.65720,70181
6.65982,65232
6.66242,60802
6.66503,57643
6.66763,55117
6.67023,52176
6.67285,52204
6.67545,46945
6.67807,45727
6.68067,44073
6.68328,44333
6.68588,39046
6.68848,40795
6.69110,41210
6.69370,38386
6.69632,35979
6.69892,36154
6.70152,34968
6.70413,33070
6.70673,34198
6.70935,31941
6.71195,30134
6.71455,33518
6.71717,28480
6.71977,29295
6.72238,27739
6.72498,28448
6.72758,29129
6.73020,29403
6.73280,28323
6.73542,27959
6.73802,27227
6.74062,26967
6.74323,26924
6.74583,25281
6.74845,26103
6.75105,24258
6.75365,24928
6.75627,25987
6.75887,23505
6.76148,24049
6.76408,26548
6.76670,25100
6.76930,28230
6.77190,26590
6.77452,26758
6.77712,25241
6.77973,22249
6.78233,23894
6.78493,21766
6.78755,21933
6.79015,22309
6.79277,20914
6.79537,22376
6.79797,22362
6.80058,19765
6.80318,20105
6.80580,20337
6.80840,20829
6.81100,21409
6.81362,17480
6.81622,19516
6.81883,20864
6.82143,20416
6.82403,20190
6.82665,19099
6.82925,18722
6.83187,19640
6.83447,19192
6.83707,19338
6.83968,21167
6.84228,18665
6.84490,17726
6.84750,18938
6.85012,19110
6.85272,19703
6.85532,20350
6.85793,18260
6.86053,20930
6.86315,28991
6.86575,29397
6.86835,33903
6.87097,37546
6.87357,33893
6.87618,35486
6.87878,34371
6.88138,31531
6.88400,30144
6.88660,26584
6.88922,24903
6.89182,25807
6.89442,25193
6.89703,25208
6.89963,19917
6.90225,22725
6.90485,22438
6.90745,23360
6.91007,20275
6.91267,20712
6.91528,19416
6.91788,19684
6.92048,21119
6.92310,19019
6.92570,17083
6.92832,20032
6.93092,22305
6.93353,24523
6.93613,30183
6.93873,32418
6.94135,30533
6.94395,25247
6.94657,23014
6.94917,21129
6.95177,20266
6.95438,20917
6.95698,20860
6.95960,20462
6.96220,22484
6.96480,20850
6.96742,22800
6.97002,20005
6.97263,18201
6.97523,17691
6.97783,18241
6.98045,17709
6.98305,19550
6.98567,19489
6.98827,16615
6.99087,17699
6.99348,18503
6.99608,17957
6.99870,17640
7.00130,17526
7.00390,16807
7.00652,18684
7.00912,18027
7.01173,17409
7.01433,18125
7.01695,18998
7.01955,15981
7.02215,18134
7.02477,17438
7.02737,18073
7.02998,17122
7.03258,16894
7.03518,15980
7.03780,19335
7.04040,18107
7.04302,16294
7.04562,18895
7.04822,17857
7.05083,20518
7.05343,20356
7.05605,21365
7.05865,20151
7.06125,19389
7.06387,18821
7.06647,16880
7.06908,18626
7.07168,16870
7.07428,19997
7.07690,16789
7.07950,17441
7.08212,17435
7.08472,18240
7.08732,20878
7.08993,18652
7.09253,17688
7.09515,17206
7.09775,19168
7.10037,17454
7.10297,17552
7.10557,17362
7.10818,16386
7.11078,17281
7.11340,17384
7.11600,15956
7.11860,17694
7.12122,14972
7.12382,17788
7.12643,15998
7.12903,16810
7.13163,17267
7.13425,17397
7.13685,15357
7.13947,18379
7.14207,17930
7.14467,16297
7.14728,16460
7.14988,16544
7.15250,18700
7.15510,18505
7.15770,17639
7.16032,16996
7.16292,16787
7.16553,17060
7.16813,19401
7.17073,16315
7.17335,16034
7.17595,17505
7.17857,17026
7.18117,17026
7.18378,19033
7.18638,17148
7.18898,16971
7.19160,15297
7.19420,18181
7.19682,16370
7.19942,18980
7.20202,18085
7.20463,18088
7.20723,19917
7.20985,23183
7.21245,25863
7.21505,27786
7.21767,29106
7.22027,23745
7.22288,23010
7.22548,21352
7.22808,18316
7.23070,19475
7.23330,18728
7.23592,20267
7.23852,19843
7.24112,19812
7.24373,18815
7.24633,18109
7.24895,19635
7.25155,17366
7.25415,19365
7.25677,17011
7.25937,17564
7.26198,16030
7.26458,15944
7.26720,17917
7.26980,18740
7.27240,18270
7.27502,17565
7.27762,16029
7.28023,18148
7.28283,16363
7.28543,18410
7.28805,18105
7.29065,18064
7.29327,15474
7.29587,19327
7.29847,17991
7.30108,16033
7.30368,16655
7.30630,18352
7.30890,16965
7.31150,17272
7.31412,18369
7.31672,17376
7.31933,19135
7.32193,20379
7.32453,17615
7.32715,18231
7.32975,16881
7.33237,17065
7.33497,16623
7.33757,17881
7.34018,15897
7.34278,16730
7.34540,18183
7.34800,17158
7.35062,17459
7.35322,18046
7.35582,17232
7.35843,18176
7.36103,20075
7.36365,18199
7.36625,17562
7.36885,15318
7.37147,18330
7.37407,17985
7.37668,18095
7.37928,17412
7.38188,18476
7.38450,16133
7.38710,18440
7.38972,18432
7.39232,17122
7.39492,18270
7.39753,19026
7.40013,17725
7.40275,16481
7.40535,19839
7.40795,20303
7.41057,17131
7.41317,15384
7.41578,18312
7.41838,18277
7.42098,19080
7.42360,17591
7.42620,15040
7.42882,19840
7.43142,18081
7.43403,17670
7.43663,18041
7.43923,16788
7.44185,19148
7.44445,17471
7.44707,18508
7.44967,17972
7.45227,16277
7.45488,18365
7.45748,17796
7.46010,17414
7.46270,17669
7.46530,17288
7.46792,17314
7.47052,20221
7.47313,18015
7.47573,17760
7.47833,18898
7.48095,19199
7.48355,19221
7.48617,17031
7.48877,18913
7.49137,18863
7.49398,18463
7.49658,18825
7.49920,21098
7.50180,18481
7.50440,19924
7.50702,19155
7.50962,18463
7.51223,17612
7.51483,19514
7.51745,17812
7.52005,17849
7.52265,21378
7.52527,20582
7.52787,19770
7.53048,19717
7.53308,20620
7.53568,19772
7.53830,21186
7.54090,19093
7.54352,19490
7.54612,20124
7.54872,19783
7.55133,18205
7.55393,16859
7.55655,19915
7.55915,17309
7.56175,20342
7.56437,19312
7.56697,19385
7.56958,18978
7.57218,19680
7.57478,20988
7.57740,21155
7.58000,23403
7.58262,23345
7.58522,24865
7.58782,22760
7.59043,21733
7.59303,19712
7.59565,20726
7.59825,19580
7.60087,20342
7.60347,19387
7.60607,20366
7.60868,19070
7.61128,20328
7.61390,20330
7.61650,20016
7.61910,20664
7.62172,20714
7.62432,20374
7.62693,20553
7.62953,21926
7.63213,21473
7.63475,19873
7.63735,20695
7.63997,19145
7.64257,20837
7.64517,19927
7.64778,21805
7.65038,21616
7.65300,21016
7.65560,21692
7.65820,22211
7.66082,21750
7.66342,21254
7.66603,23425
7.66863,28695
7.67123,36955
7.67385,53325
7.67645,63851
7.67907,70973
7.68167,64334
7.68428,50430
7.68688,40786
7.68948,34693
7.69210,28434
7.69470,25902
7.69732,26603
7.69992,25327
7.70252,23854
7.70513,26104
7.70773,23499
7.71035,23494
7.71295,23110
7.71555,23723
7.71817,26659
7.72077,24998
7.72338,23908
7.72598,23635
7.72858,23867
7.73120,21760
7.73380,22165
7.73642,21959
7.73902,23791
7.74162,23356
7.74423,21761
7.74683,22030
7.74945,23600
7.75205,22454
7.75465,24027
7.75727,23601
7.75987,23319
7.76248,23048
7.76508,23650
7.76770,24478
7.77030,21962
7.77290,21340
7.77552,22349
7.77812,23970
7.78073,20277
7.78333,20919
7.78593,21315
7.78855,23303
7.79115,23804
7.79377,24066
7.79637,24016
7.79897,23026
7.80158,24729
7.80418,22726
7.80680,24529
7.80940,21566
7.81200,24156
7.81462,22371
7.81722,23445
7.81983,24180
7.82243,28150
7.82503,29127
7.82765,28658
7.83025,31824
7.83287,29693
7.83547,29349
7.83807,26314
7.84068,25343
7.84328,25272
7.84590,25687
7.84850,23022
7.85112,25966
7.85372,25113
7.85632,24193
7.85893,23976
7.86153,23149
7.86415,22842
7.86675,24259
7.86935,24209
7.87197,22615
7.87457,24524
7.87718,24020
7.87978,24555
7.88238,24302
7.88500,23308
7.88760,24558
7.89022,25838
7.89282,22785
7.89542,23652
7.89803,24665
7.90063,23138
7.90325,24922
7.90585,27756
7.90845,27487
7.91107,26304
7.91367,25840
7.91628,25935
7.91888,26649
7.92148,26753
7.92410,26528
7.92670,24237
7.92932,25391
7.93192,24427
7.93453,25305
7.93713,26849
7.93973,25432
7.94235,23369
7.94495,24538
7.94757,26456
7.95017,24410
7.95277,22872
7.95538,26345
7.95798,27701
7.96060,25247
7.96320,24849
7.96580,29518
7.96842,27288
7.97102,26445
7.97363,26958
7.97623,25322
7.97883,25205
7.98145,24898
7.98405,27451
7.98667,25728
7.98927,27389
7.99187,24414
7.99448,24698
7.99708,24085
7.99970,26547
8.00230,25167
8.00490,24926
8.00752,24898
8.01012,27497
8.01273,26937
8.01533,26010
8.01795,27287
8.02055,25961
8.02315,25585
8.02577,23913
8.02837,30186
8.03098,28326
8.03358,25298
8.03618,26200
8.03880,27056
8.04140,25123
8.04402,26381
8.04662,26870
8.04922,27043
8.05183,29733
8.05443,31791
8.05705,48346
8.05965,131986
8.06225,406030
8.06487,1327073
8.06747,3763450
8.07008,8215581
8.07268,1.320445E+07
8.07528,1.762366E+07
8.07790,1.971075E+07
8.08050,1.754876E+07
8.08312,1.190871E+07
8.08572,6408526
8.08832,3278876
8.09093,1940941
8.09353,1330218
8.09615,978831
8.09875,784569
8.10137,654755
8.10397,543659
8.10657,453134
8.10918,393927
8.11178,338571
8.11440,304317
8.11700,287775
8.11960,259839
8.12222,234102
8.12482,216782
8.12743,199260
8.13003,178001
8.13263,163578
8.13525,152249
8.13785,153391
8.14047,140595
8.14307,128520
8.14567,126827
8.14828,119644
8.15088,113952
8.15350,103360
8.15610,104004
8.15870,98053
8.16132,96621
8.16392,90455
8.16653,85963
8.16913,84552
8.17173,83168
8.17435,87497
8.17695,91410
8.17957,96701
8.18217,102138
8.18478,90481
8.18738,85644
8.18998,78769
8.19260,76474
8.19520,67386
8.19782,64964
8.20042,60299
8.20302,64190
8.20563,63210
8.20823,63795
8.21085,59842
8.21345,59597
8.21605,56236
8.21867,57087
8.22127,56182
8.22388,50660
8.22648,53444
8.22908,50368
8.23170,49844
8.23430,53826
8.23692,51716
8.23952,48748
8.24212,50033
8.24473,49066
8.24733,46556
8.24995,46379
8.25255,45739
8.25515,45187
8.25777,43712
8.26037,46744
8.26298,45919
8.26558,42692
8.26820,45224
8.27080,45356
8.27340,43258
8.27602,43476
8.27862,42056
8.28123,44094
8.28383,43933
8.28643,41982
8.28905,44818
8.29165,45383
8.29427,42484
8.29687,46924
8.29947,43365
8.30208,43518
8.30468,46911
8.30730,42273
8.30990,44351
8.31250,42328
8.31512,40211
8.31772,43034
8.32033,42015
8.32293,44368
8.32553,45158
8.32815,39954
8.33075,40153
8.33337,42597
8.33597,43068
8.33857,41645
8.34118,44423
8.34378,43486
8.34640,40854
8.34900,40000
8.35162,42906
8.35422,40292
8.35682,40715
8.35943,40197
8.36203,41721
8.36465,41138
8.36725,42916
8.36985,42479
8.37247,44580
8.37507,43365
8.37768,41846
8.38028,40014
8.38288,40478
8.38550,41020
8.38810,41383
8.39072,42644
8.39332,42488
8.39592,43367
8.39853,44001
8.40113,44474
8.40375,42391
8.40635,44738
8.40895,43374
8.41157,45092
8.41417,44376
8.41678,45178
8.41938,44446
8.42198,43614
8.42460,42675
8.42720,44059
8.42982,43363
8.43242,44591
8.43503,45964
8.43763,45235
8.44023,46782
8.44285,44729
8.44545,44379
8.44807,44119
8.45067,40699
8.45327,44399
8.45588,45848
8.45848,47244
8.46110,44972
8.46370,45984
8.46630,48553
8.46892,48043
8.47152,49293
8.47413,51265
8.47673,52023
8.47933,53281
8.48195,54798
8.48455,53485
8.48717,51421
8.48977,49099
8.49237,50593
8.49498,47273
8.49758,47602
8.50020,52844
8.50280,50227
8.50540,55022
8.50802,60569
8.51062,66420
8.51323,64257
8.51583,61375
8.51845,59946
8.52105,56378
8.52365,56921
8.52627,55711
8.52887,51144
8.53148,51816
8.53408,52991
8.53668,52211
8.53930,53318
8.54190,50330
8.54452,53599
8.54712,52659
8.54972,51856
8.55233,53415
8.55493,53749
8.55755,52457
8.56015,54639
8.56275,52356
8.56537,54516
8.56797,55182
8.57058,56075
8.57318,52973
8.57578,56243
8.57840,56786
8.58100,57062
8.58362,57595
8.58622,58901
8.58882,53941
8.59143,56988
8.59403,57809
8.59665,58990
8.59925,58118
8.60187,59489
8.60447,58458
8.60707,59267
8.60968,62652
8.61228,59490
8.61490,57997
8.61750,59461
8.62010,57907
8.62272,55814
8.62532,61561
8.62793,61045
8.63053,62746
8.63313,61782
8.63575,61885
8.63835,62741
8.64097,66082
8.64357,61352
8.64617,63474
8.64878,66323
8.65138,64794
8.65400,64587
8.65660,64053
8.65920,68428
8.66182,67080
8.66442,63289
8.66703,66892
8.66963,65659
8.67223,62588
8.67485,70143
8.67745,65854
8.68007,69251
8.68267,68375
8.68528,73523
8.68788,72710
8.69048,74516
8.69310,71462
8.69570,76300
8.69832,70669
8.70092,73361
8.70352,73239
8.70613,72740
8.70873,77252
8.71135,78857
8.71395,79825
8.71655,81174
8.71917,80478
8.72177,78429
8.72438,83754
8.72698,79384
8.72958,82187
8.73220,83360
8.73480,84061
8.73742,79088
8.74002,77624
8.74262,78675
8.74523,78782
8.74783,77354
8.75045,80062
8.75305,77088
8.75565,76688
8.75827,77041
8.76087,74365
8.76348,77530
8.76608,80167
8.76870,78296
8.77130,77635
8.77390,77543
8.77652,79430
8.77912,80236
8.78173,81339
8.78433,75590
8.78693,77979
8.78955,79171
8.79215,79999
8.79477,81217
8.79737,81556
8.79997,76794
8.80258,79399
8.80518,82547
8.80780,78095
8.81040,85317
8.81300,81441
8.81562,82513
8.81822,83253
8.82083,83350
8.82343,80600
8.82603,80625
8.82865,82181
8.83125,83066
8.83387,85401
8.83647,87056
8.83907,86206
8.84168,86017
8.84428,87147
8.84690,83481
8.84950,83906
8.85212,86674
8.85472,89784
8.85732,87690
8.85993,89508
8.86253,87958
8.86515,87404
8.86775,87578
8.87035,87698
8.87297,87250
8.87557,88250
8.87818,86245
8.88078,84389
8.88338,88611
8.88600,84553
8.88860,88128
8.89122,91387
8.89382,89898
8.89642,88797
8.89903,90435
8.90163,87555
8.90425,88901
8.90685,89232
8.90945,89235
8.91207,89154
8.91467,89773
8.91728,88750
8.91988,90880
8.92248,90969
8.92510,91147
8.92770,94836
8.93032,92857
8.93292,91783
8.93553,94346
8.93813,94677
8.94073,96708
8.94335,92719
8.94595,90527
8.94857,91906
8.95117,93677
8.95377,91202
8.95638,90630
8.95898,95162
8.96160,92591
8.96420,98003
8.96680,94512
8.96942,93685
8.97202,92082
8.97463,91684
8.97723,88874
8.97983,91349
8.98245,95971
8.98505,97102
8.98767,100738
8.99027,94294
8.99287,100444
8.99548,92636
8.99808,95537
9.00070,96256
9.00330,97540
9.00590,96447
9.00852,96131
9.01112,96667
9.01373,96275
9.01633,95829
9.01895,92094
9.02155,93960
9.02415,94600
9.02677,95039
9.02937,97738
9.03198,99539
9.03458,99943
9.03718,97419
9.03980,95045
9.04240,98727
9.04502,94716
9.04762,94751
9.05022,94771
9.05283,98168
9.05543,95842
9.05805,95518
9.06065,99069
9.06325,99293
9.06587,92743
9.06847,95516
9.07108,98906
9.07368,96721
9.07628,98730
9.07890,97190
9.08150,97270
9.08412,96176
9.08672,98292
9.08932,98155
9.09193,97811
9.09453,97513
9.09715,98300
9.09975,95776
9.10237,98517
9.10497,99108
9.10757,95830
9.11018,95876
9.11278,96832
9.11540,96126
9.11800,99350
9.12060,98732
9.12322,102538
9.12582,101641
9.12843,101649
9.13103,103950
9.13363,100676
9.13625,103379
9.13885,98682
9.14147,101689
9.14407,96955
9.14667,100869
9.14928,101762
9.15188,101023
9.15450,96090
9.15710,97557
9.15970,95166
9.16232,100218
9.16492,96471
9.16753,99965
9.17013,98307
9.17273,100864
9.17535,99373
9.17795,97078
9.18057,98564
9.18317,98621
9.18578,99979
9.18838,100050
9.19098,99954
9.19360,100271
9.19620,100273
9.19882,102640
9.20142,102063
9.20402,99838
9.20663,103569
9.20923,104501
9.21185,98965
9.21445,98287
9.21705,100847
9.21967,100499
9.22227,100355
9.22488,98501
9.22748,98006
9.23008,98810
9.23270,100410
9.23530,98442
9.23792,94188
9.24052,98734
9.24312,100691
9.24573,102295
9.24833,98189
9.25095,103258
9.25355,97930
9.25615,99928
9.25877,98561
9.26137,101205
9.26398,96688
9.26658,101645
9.26920,96283
9.27180,95133
9.27440,97978
9.27702,99256
9.27962,99225
9.28223,99042
9.28483,96751
9.28743,97299
9.29005,96150
9.29265,97546
9.29527,97044
9.29787,100936
9.30047,97005
9.30308,99920
9.30568,97241
9.30830,100660
9.31090,96526
9.31350,96187
9.31612,97213
9.31872,99876
9.32133,98931
9.32393,99207
9.32653,98896
9.32915,98235
9.33175,99355
9.33437,99601
9.33697,98632
9.33957,102604
9.34218,102396
9.34478,102173
9.34740,99897
9.35000,98887
9.35262,100361
9.35522,99487
9.35782,100246
9.36043,101573
9.36303,98762
9.36565,96335
9.36825,102801
9.37085,99812
9.37347,100476
9.37607,97232
9.37868,93586
9.38128,95630
9.38388,99246
9.38650,94940
9.38910,98324
9.39172,98842
9.39432,97980
9.39692,98301
9.39953,98399
9.40213,100089
9.40475,98458
9.40735,96668
9.40995,94876
9.41257,99061
9.41517,101357
9.41778,97324
9.42038,93586
9.42298,92112
9.42560,101010
9.42820,100269
9.43082,96846
9.43342,95523
9.43603,96486
9.43863,100202
9.44123,97928
9.44385,98089
9.44645,99934
9.44907,98009
9.45167,96691
9.45427,101753
9.45688,96929
9.45948,100167
9.46210,101418
9.46470,98385
9.46730,100598
9.46992,99795
9.47252,101831
9.47513,101744
9.47773,102216
9.48033,99638
9.48295,101899
9.48555,100265
9.48817,99718
9.49077,104724
9.49337,97617
9.49598,98593
9.49858,101791
9.50120,103217
9.50380,100181
9.50640,100922
9.50902,102007
9.51162,98554
9.51423,93772
9.51683,99247
9.51945,94570
9.52205,100360
9.52465,99942
9.52727,99580
9.52987,99078
9.53248,98515
9.53508,94923
9.53768,101248
9.54030,98626
9.54290,101362
9.54552,98420
9.54812,98051
9.55072,93577
9.55333,98750
9.55593,98363
9.55855,96432
9.56115,100658
9.56375,97197
9.56637,97119
9.56897,98476
9.57158,100214
9.57418,95122
9.57678,99458
9.57940,97252
9.58200,99581
9.58462,95480
9.58722,99651
9.58982,101294
9.59243,98192
9.59503,99195
9.59765,97983
9.60025,96133
9.60287,100096
9.60547,94618
9.60807,94876
9.61068,97966
9.61328,98193
9.61590,101012
9.61850,103384
9.62110,97990
9.62372,101850
9.62632,99880
9.62893,101873
9.63153,100773
9.63413,96310
9.63675,100035
9.63935,99533
9.64197,100945
9.64457,97625
9.64717,97398
9.64978,97703
9.65238,96552
9.65500,96820
9.65760,98445
9.66020,98679
9.66282,96571
9.66542,98617
9.66803,102404
9.67063,99874
9.67323,98533
9.67585,98040
9.67845,95365
9.68107,93619
9.68367,102065
9.68628,99592
9.68888,99044
9.69148,101854
9.69410,97085
9.69670,103882
9.69932,99448
9.70192,101152
9.70452,100261
9.70713,96638
9.70973,95234
9.71235,97068
9.71495,101409
9.71755,99095
9.72017,102523
9.72277,100881
9.72538,102298
9.72798,97226
9.73058,95909
9.73320,97624
9.73580,99389
9.73842,101744
9.74102,97583
9.74362,95332
9.74623,99943
9.74883,95630
9.75145,100811
9.75405,99453
9.75665,95893
9.75927,99595
9.76187,99262
9.76448,100834
9.76708,98450
9.76970,98761
9.77230,100976
9.77490,96836
9.77752,97173
9.78012,97966
9.78273,99620
9.78533,99271
9.78793,95966
9.79055,101526
9.79315,105134
9.79577,101983
9.79837,97351
9.80097,101221
9.80358,95064
9.80618,103798
9.80880,100838
9.81140,101859
9.81400,97405
9.81662,98252
9.81922,97999
9.82183,99465
9.82443,101414
9.82703,95620
9.82965,97770
9.83225,102269
9.83487,101971
9.83747,102651
9.84007,101024
9.84268,100679
9.84528,96094
9.84790,96334
9.85050,101153
9.85312,102563
9.85572,101309
9.85832,100843
9.86093,97254
9.86353,95673
9.86615,97912
9.86875,105080
9.87135,97998
9.87397,98980
9.87657,98960
9.87918,101698
9.88178,98900
9.88438,99319
9.88700,98489
9.88960,101952
9.89222,101123
9.89482,95964
9.89742,96978
9.90003,97068
9.90263,100698
9.90525,101264
9.90785,96288
9.91045,96863
9.91307,100018
9.91567,100830
9.91828,101447
9.92088,94513
9.92348,101499
9.92610,95725
9.92870,96827
9.93132,96757
9.93392,98482
9.93653,98613
9.93913,99326
9.94173,99015
9.94435,100669
9.94695,99073
9.94957,96398
9.95217,98379
9.95477,99406
9.95738,96332
9.95998,100168
9.96260,95398
9.96520,99712
9.96780,99395
9.97042,98183
9.97302,100079
9.97563,100278
9.97823,96292
9.98083,96306
9.98345,98724
9.98605,98005
9.98867,98324
9.99127,96621
9.99387,102191
9.99648,99609
9.99908,103013
10.00170,97971
10.00430,96312
10.00690,96577
10.00952,96992
10.01212,98800
10.01473,103569
10.01733,101174
10.01995,99578
10.02255,103403
10.02515,97244
10.02777,99703
10.03037,95368
10.03298,103677
10.03558,97409
10.03818,100006
10.04080,100806
10.04340,103065
10.04602,98950
10.04862,101015
10.05122,99170
10.05383,101142
10.05643,102315
10.05905,100270
10.06165,100513
10.06425,101381
10.06687,99244
10.06947,102747
10.07208,102923
10.07468,99160
10.07728,98241
10.07990,104530
10.08250,97289
10.08512,101617
10.08772,102999
10.09032,103049
10.09293,98133
10.09553,102902
10.09815,102675
10.10075,97177
10.10337,97631
10.10597,97821
10.10857,102726
10.11118,100316
10.11378,99034
10.11640,100164
10.11900,101834
10.12160,100427
10.12422,100798
10.12682,103585
10.12943,99555
10.13203,98815
10.13463,101682
10.13725,100194
10.13985,95622
10.14247,100995
10.14507,99914
10.14767,101224
10.15028,105723
10.15288,99366
10.15550,98878
10.15810,102135
10.16070,101027
10.16332,100630
10.16592,98207
10.16853,101351
10.17113,104205
10.17373,99449
10.17635,98038
10.17895,100432
10.18157,99516
10.18417,98845
10.18678,103487
10.18938,100110
10.19198,102398
10.19460,98261
10.19720,102267
10.19982,98464
10.20242,100146
10.20502,97518
10.20763,101172
10.21023,98910
10.21285,102965
10.21545,98837
10.21805,101542
10.22067,98809
10.22327,104288
10.22588,97653
10.22848,103168
10.23108,99676
10.23370,104442
10.23630,96789
10.23892,101978
10.24152,105940
10.24412,100445
10.24673,102266
10.24933,98316
10.25195,98068
10.25455,98920
10.25715,101102
10.25977,100422
10.26237,101181
10.26498,97414
10.26758,96879
10.27020,98283
10.27280,100024
10.27540,101091
10.27802,100182
10.28062,99727
10.28323,97108
10.28583,102352
10.28843,98523
10.29105,100675
10.29365,103742
10.29627,97064
10.29887,102343
10.30147,97564
10.30408,97612
10.30668,99000
10.30930,99283
10.31190,101336
10.31450,100887
10.31712,100422
10.31972,98948
10.32233,97865
10.32493,100491
10.32753,102373
10.33015,101328
10.33275,102173
10.33537,100318
10.33797,101790
10.34057,101883
10.34318,102371
10.34578,96824
10.34840,99917
10.35100,95597
10.35362,99565
10.35622,97319
10.35882,103426
10.36143,99515
10.36403,99778
10.36665,100162
10.36925,98171
10.37185,100629
10.37447,97350
10.37707,101870
10.37968,97280
10.38228,101707
10.38488,101329
10.38750,106599
10.39010,97161
10.39272,98980
10.39532,100588
10.39792,99924
10.40053,102072
10.40313,102898
10.40575,96787
10.40835,104305
10.41095,98377
10.41357,101154
10.41617,99461
10.41878,101048
10.42138,100153
10.42398,98455
10.42660,105536
10.42920,103619
10.43182,99373
10.43442,99538
10.43703,102103
10.43963,102117
10.44223,100808
10.44485,105255
10.44745,103252
10.45007,104478
10.45267,106693
10.45527,105079
10.45788,103123
10.46048,104635
10.46310,106891
10.46570,104116
10.46830,104774
10.47092,104624
10.47352,105717
10.47613,107558
10.47873,100867
10.48133,106205
10.48395,109112
10.48655,110082
10.48917,108707
10.49177,101978
10.49437,106647
10.49698,105975
10.49958,109959
10.50220,108090
10.50480,108049
10.50740,103181
10.51002,106464
10.51262,101035
10.51523,101782
10.51783,105423
10.52045,107597
10.52305,103395
10.52565,101799
10.52827,102285
10.53087,107659
10.53348,97388
10.53608,100896
10.53868,104368
10.54130,103930
10.54390,102435
10.54652,103134
10.54912,102049
10.55172,102530
10.55433,100234
10.55693,102740
10.55955,103500
10.56215,104499
10.56475,102306
10.56737,100021
10.56997,101014
10.57258,102622
10.57518,100587
10.57778,98594
10.58040,103573
10.58300,104544
10.58562,98626
10.58822,106385
10.59082,104835
10.59343,98335
10.59603,100649
10.59865,100062
10.60125,102669
10.60387,104282
10.60647,100281
10.60907,99802
10.61168,99457
10.61428,102729
10.61690,101010
10.61950,100624
10.62210,101663
10.62472,102547
10.62732,98787
10.62993,99724
10.63253,102328
10.63513,100372
10.63775,98893
10.64035,101124
10.64297,98538
10.64557,100010
10.64817,104309
10.65078,101365
10.65338,99898
10.65600,104353
10.65860,98771
10.66120,99598
