D:\data\overige2021\rk\20200201rk_cocacase28x\B039731.D Mon Feb 01 21:24:48 2021
Start of data points
1.58973,8012
1.59233,8362
1.59493,10840
1.59755,9877
1.60015,9649
1.60277,8111
1.60537,9374
1.60797,8750
1.61058,9893
1.61318,8950
1.61580,11315
1.61840,9327
1.62100,8913
1.62362,10063
1.62622,10103
1.62883,8113
1.63143,9801
1.63403,8672
1.63665,8852
1.63925,8814
1.64187,10280
1.64447,10001
1.64708,8484
1.64968,7838
1.65228,8795
1.65490,8482
1.65750,9144
1.66012,7890
1.66272,8102
1.66532,8786
1.66793,8140
1.67053,9181
1.67315,9267
1.67575,8771
1.67835,8852
1.68097,8119
1.68357,8429
1.68618,8947
1.68878,7097
1.69138,8087
1.69400,9911
1.69660,10562
1.69922,11910
1.70182,13622
1.70442,15940
1.70703,17375
1.70963,15814
1.71225,14513
1.71485,13909
1.71745,11537
1.72007,10220
1.72267,8231
1.72528,8591
1.72788,7493
1.73050,8843
1.73310,8117
1.73570,6830
1.73832,7479
1.74092,7865
1.74353,7888
1.74613,9009
1.74873,8999
1.75135,7990
1.75395,7640
1.75657,7349
1.75917,7064
1.76177,6426
1.76438,8736
1.76698,6685
1.76960,7554
1.77220,6876
1.77480,7753
1.77742,7992
1.78002,7084
1.78263,7590
1.78523,6548
1.78783,7857
1.79045,7378
1.79305,6951
1.79567,6026
1.79827,7306
1.80087,7542
1.80348,7936
1.80608,5639
1.80870,8499
1.81130,7483
1.81392,6680
1.81652,6642
1.81912,7628
1.82173,6301
1.82433,5685
1.82695,6902
1.82955,5904
1.83215,5793
1.83477,6666
1.83737,5559
1.83998,5621
1.84258,5903
1.84518,5691
1.84780,6239
1.85040,4880
1.85302,5863
1.85562,5801
1.85822,6517
1.86083,6113
1.86343,5968
1.86605,6635
1.86865,6475
1.87125,5818
1.87387,5919
1.87647,5038
1.87908,6505
1.88168,6225
1.88428,5758
1.88690,6302
1.88950,5651
1.89212,5565
1.89472,5449
1.89733,5404
1.89993,4826
1.90253,5732
1.90515,6476
1.90775,6089
1.91037,6187
1.91297,5750
1.91557,5975
1.91818,6796
1.92078,5335
1.92340,6044
1.92600,7080
1.92860,6468
1.93122,6161
1.93382,5192
1.93643,5522
1.93903,5465
1.94163,4859
1.94425,4802
1.94685,5128
1.94947,4394
1.95207,7540
1.95467,5305
1.95728,4802
1.95988,4103
1.96250,5229
1.96510,4806
1.96770,5207
1.97032,5907
1.97292,5448
1.97553,4864
1.97813,5733
1.98075,4618
1.98335,4973
1.98595,5368
1.98857,4761
1.99117,5218
1.99378,5113
1.99638,5654
1.99898,4669
2.00160,4826
2.00420,5173
2.00682,5039
2.00942,4698
2.01202,5311
2.01463,5607
2.01723,5264
2.01985,6701
2.02245,6588
2.02505,5888
2.02767,5972
2.03027,5387
2.03288,6526
2.03548,7847
2.03808,12222
2.04070,12890
2.04330,14554
2.04592,15391
2.04852,13597
2.05112,13545
2.05373,10070
2.05633,9679
2.05895,8471
2.06155,8417
2.06417,7229
2.06677,7272
2.06937,6562
2.07198,7214
2.07458,6246
2.07720,7590
2.07980,6625
2.08240,6021
2.08502,6968
2.08762,5889
2.09023,5552
2.09283,5655
2.09543,6397
2.09805,8214
2.10065,7468
2.10327,6102
2.10587,6003
2.10847,6037
2.11108,4875
2.11368,5543
2.11630,6052
2.11890,6891
2.12150,5858
2.12412,5520
2.12672,5136
2.12933,5640
2.13193,5285
2.13453,5033
2.13715,6001
2.13975,4815
2.14237,4762
2.14497,6192
2.14758,5121
2.15018,5065
2.15278,6166
2.15540,4779
2.15800,6119
2.16062,4723
2.16322,5339
2.16582,4261
2.16843,5560
2.17103,4936
2.17365,4757
2.17625,5818
2.17885,5172
2.18147,5683
2.18407,5323
2.18668,6061
2.18928,5537
2.19188,4966
2.19450,4758
2.19710,6347
2.19972,5084
2.20232,4261
2.20492,5246
2.20753,5838
2.21013,5909
2.21275,4321
2.21535,4744
2.21795,5991
2.22057,4799
2.22317,5170
2.22578,4792
2.22838,4127
2.23100,4915
2.23360,5319
2.23620,4959
2.23882,4987
2.24142,5177
2.24403,5427
2.24663,5189
2.24923,4815
2.25185,5000
2.25445,4425
2.25707,4444
2.25967,4484
2.26227,5704
2.26488,4452
2.26748,4404
2.27010,5093
2.27270,4304
2.27530,3836
2.27792,5451
2.28052,5108
2.28313,5631
2.28573,5138
2.28833,4646
2.29095,4886
2.29355,4363
2.29617,5397
2.29877,4624
2.30137,3859
2.30398,4314
2.30658,5304
2.30920,4509
2.31180,5446
2.31442,5013
2.31702,5350
2.31962,5126
2.32223,5079
2.32483,4413
2.32745,5619
2.33005,5541
2.33265,5176
2.33527,4585
2.33787,4579
2.34048,5285
2.34308,4756
2.34568,5088
2.34830,3729
2.35090,4649
2.35352,5552
2.35612,4938
2.35872,3960
2.36133,4454
2.36393,4517
2.36655,4901
2.36915,4595
2.37175,5669
2.37437,4514
2.37697,4266
2.37958,3882
2.38218,5126
2.38478,4915
2.38740,5119
2.39000,4517
2.39262,4512
2.39522,5111
2.39783,5004
2.40043,4192
2.40303,4144
2.40565,6083
2.40825,5126
2.41087,4326
2.41347,4798
2.41607,4430
2.41868,5643
2.42128,4897
2.42390,5179
2.42650,4275
2.42910,4028
2.43172,4743
2.43432,4758
2.43693,4955
2.43953,4576
2.44213,4504
2.44475,6004
2.44735,4872
2.44997,4233
2.45257,4562
2.45517,7134
2.45778,5957
2.46038,7558
2.46300,6839
2.46560,8125
2.46820,7193
2.47082,7184
2.47342,6502
2.47603,6883
2.47863,4930
2.48125,5100
2.48385,6319
2.48645,5592
2.48907,4945
2.49167,5472
2.49428,4704
2.49688,5698
2.49948,5621
2.50210,4481
2.50470,5500
2.50732,5286
2.50992,5559
2.51252,5328
2.51513,5555
2.51773,4505
2.52035,5597
2.52295,4748
2.52555,4972
2.52817,4158
2.53077,4488
2.53338,4061
2.53598,4500
2.53858,4318
2.54120,4676
2.54380,5251
2.54642,5480
2.54902,5082
2.55162,5057
2.55423,5342
2.55683,4991
2.55945,4458
2.56205,4723
2.56467,3792
2.56727,4116
2.56987,4206
2.57248,3650
2.57508,4181
2.57770,5176
2.58030,4631
2.58290,4987
2.58552,4320
2.58812,6161
2.59073,5959
2.59333,4435
2.59593,5176
2.59855,5405
2.60115,5484
2.60377,5282
2.60637,5027
2.60897,4816
2.61158,4149
2.61418,4601
2.61680,5535
2.61940,4723
2.62200,4123
2.62462,4292
2.62722,4421
2.62983,4659
2.63243,4537
2.63503,5288
2.63765,5419
2.64025,5358
2.64287,5632
2.64547,4708
2.64808,4059
2.65068,4628
2.65328,3982
2.65590,5788
2.65850,4622
2.66112,4369
2.66372,4427
2.66632,4877
2.66893,4717
2.67153,5068
2.67415,4642
2.67675,5245
2.67935,5257
2.68197,4427
2.68457,5004
2.68718,5771
2.68978,4791
2.69238,4599
2.69500,5141
2.69760,4367
2.70022,4388
2.70282,5229
2.70542,4307
2.70803,5480
2.71063,4878
2.71325,4546
2.71585,3603
2.71845,5049
2.72107,4228
2.72367,3537
2.72628,4623
2.72888,4869
2.73150,4146
2.73410,4614
2.73670,4132
2.73932,4559
2.74192,3652
2.74453,4476
2.74713,4255
2.74973,4843
2.75235,4517
2.75495,3424
2.75757,4426
2.76017,5573
2.76277,4690
2.76538,4445
2.76798,4172
2.77060,3731
2.77320,4780
2.77580,5311
2.77842,5215
2.78102,4346
2.78363,3986
2.78623,2971
2.78883,4385
2.79145,4236
2.79405,3458
2.79667,4705
2.79927,4347
2.80187,5672
2.80448,4896
2.80708,4681
2.80970,4465
2.81230,3572
2.81492,5235
2.81752,3849
2.82012,5036
2.82273,4270
2.82533,4781
2.82795,4459
2.83055,4525
2.83315,4292
2.83577,4345
2.83837,5618
2.84098,4350
2.84358,4662
2.84618,3874
2.84880,4634
2.85140,4104
2.85402,3699
2.85662,5281
2.85922,5406
2.86183,5064
2.86443,4934
2.86705,4891
2.86965,4444
2.87225,5731
2.87487,3905
2.87747,4347
2.88008,4048
2.88268,4565
2.88528,4677
2.88790,3776
2.89050,4253
2.89312,3885
2.89572,5982
2.89833,3997
2.90093,4499
2.90353,4731
2.90615,4866
2.90875,5054
2.91137,3912
2.91397,4919
2.91657,5618
2.91918,5120
2.92178,5338
2.92440,5284
2.92700,4586
2.92960,5135
2.93222,4327
2.93482,5208
2.93743,4646
2.94003,4644
2.94263,4010
2.94525,4412
2.94785,3856
2.95047,5261
2.95307,4142
2.95567,3965
2.95828,3283
2.96088,4438
2.96350,3584
2.96610,5641
2.96870,3897
2.97132,5145
2.97392,4872
2.97653,5717
2.97913,5174
2.98175,5945
2.98435,4672
2.98695,5526
2.98957,4654
2.99217,4841
2.99478,4348
2.99738,4277
2.99998,3785
3.00260,3160
3.00520,4341
3.00782,4953
3.01042,4383
3.01302,4325
3.01563,5097
3.01823,5166
3.02085,5075
3.02345,5519
3.02605,5358
3.02867,4985
3.03127,4598
3.03388,3746
3.03648,4504
3.03908,4008
3.04170,3915
3.04430,4017
3.04692,5230
3.04952,3428
3.05212,5437
3.05473,4705
3.05733,4204
3.05995,5056
3.06255,4803
3.06517,3959
3.06777,4374
3.07037,4116
3.07298,4219
3.07558,5306
3.07820,3324
3.08080,5652
3.08340,4344
3.08602,5284
3.08862,4777
3.09123,4995
3.09383,4969
3.09643,4058
3.09905,2978
3.10165,4297
3.10427,4601
3.10687,3575
3.10947,5360
3.11208,5286
3.11468,5050
3.11730,7748
3.11990,11048
3.12250,13991
3.12512,16972
3.12772,19115
3.13033,18648
3.13293,19220
3.13553,19653
3.13815,19535
3.14075,19575
3.14337,17670
3.14597,18304
3.14858,14822
3.15118,15751
3.15378,12713
3.15640,12135
3.15900,11140
3.16162,9729
3.16422,9758
3.16682,11945
3.16943,8875
3.17203,10261
3.17465,8328
3.17725,8796
3.17985,6856
3.18247,7674
3.18507,8550
3.18768,7036
3.19028,8030
3.19288,6401
3.19550,6729
3.19810,7492
3.20072,7862
3.20332,7380
3.20592,6548
3.20853,5769
3.21113,6267
3.21375,5873
3.21635,5638
3.21895,5962
3.22157,6292
3.22417,6878
3.22678,5582
3.22938,6374
3.23200,6680
3.23460,6851
3.23720,5124
3.23982,6624
3.24242,5616
3.24503,6120
3.24763,5875
3.25023,6640
3.25285,5519
3.25545,5861
3.25807,4879
3.26067,5200
3.26327,4957
3.26588,5460
3.26848,5548
3.27110,5179
3.27370,6342
3.27630,5132
3.27892,5073
3.28152,4736
3.28413,6886
3.28673,5544
3.28933,5971
3.29195,5089
3.29455,6333
3.29717,4238
3.29977,4721
3.30237,5018
3.30498,6273
3.30758,4668
3.31020,6339
3.31280,5454
3.31542,5408
3.31802,6035
3.32062,6142
3.32323,5272
3.32583,4499
3.32845,4994
3.33105,5479
3.33365,4534
3.33627,5875
3.33887,6208
3.34148,4448
3.34408,5318
3.34668,5351
3.34930,4308
3.35190,5163
3.35452,5422
3.35712,5450
3.35972,5020
3.36233,5530
3.36493,4610
3.36755,4472
3.37015,4550
3.37275,4829
3.37537,4830
3.37797,4589
3.38058,4973
3.38318,5467
3.38578,4638
3.38840,4390
3.39100,5099
3.39362,7359
3.39622,6659
3.39883,6105
3.40143,7154
3.40403,8294
3.40665,7056
3.40925,6310
3.41187,6491
3.41447,6910
3.41707,4227
3.41968,5435
3.42228,5418
3.42490,5460
3.42750,5760
3.43010,6697
3.43272,6176
3.43532,5377
3.43793,5082
3.44053,6276
3.44313,6171
3.44575,5602
3.44835,5684
3.45097,5094
3.45357,5387
3.45617,5128
3.45878,5407
3.46138,4530
3.46400,5467
3.46660,5533
3.46920,5703
3.47182,5871
3.47442,4914
3.47703,5739
3.47963,5763
3.48225,5195
3.48485,5468
3.48745,5276
3.49007,4946
3.49267,5318
3.49528,4277
3.49788,4944
3.50048,5290
3.50310,4579
3.50570,5405
3.50832,5732
3.51092,7918
3.51352,12562
3.51613,19190
3.51873,28975
3.52135,36636
3.52395,38486
3.52655,35538
3.52917,26891
3.53177,20379
3.53438,18461
3.53698,16202
3.53958,12183
3.54220,12845
3.54480,9932
3.54742,11017
3.55002,12014
3.55262,9056
3.55523,9648
3.55783,9193
3.56045,10004
3.56305,10126
3.56567,10003
3.56827,9897
3.57087,9047
3.57348,9323
3.57608,7774
3.57870,10122
3.58130,10142
3.58390,9175
3.58652,9805
3.58912,8374
3.59173,11275
3.59433,10281
3.59693,8816
3.59955,11276
3.60215,9737
3.60477,9715
3.60737,9786
3.60997,10463
3.61258,9262
3.61518,8763
3.61780,10609
3.62040,10055
3.62300,9527
3.62562,9184
3.62822,10467
3.63083,8887
3.63343,10596
3.63603,9682
3.63865,10875
3.64125,11576
3.64387,11529
3.64647,11165
3.64908,10876
3.65168,10744
3.65428,10471
3.65690,9584
3.65950,11082
3.66212,8743
3.66472,8722
3.66732,9320
3.66993,8274
3.67253,9219
3.67515,9612
3.67775,9228
3.68035,8589
3.68297,10031
3.68557,9039
3.68818,8447
3.69078,8421
3.69338,10519
3.69600,7895
3.69860,8856
3.70122,8511
3.70382,8639
3.70642,8900
3.70903,7488
3.71163,8306
3.71425,8488
3.71685,9775
3.71945,8309
3.72207,7864
3.72467,8503
3.72728,8806
3.72988,8884
3.73250,8902
3.73510,9337
3.73770,9514
3.74032,8876
3.74292,8542
3.74553,7705
3.74813,7973
3.75073,8560
3.75335,8768
3.75595,8903
3.75857,8544
3.76117,9867
3.76377,8263
3.76638,9827
3.76898,8661
3.77160,9675
3.77420,9104
3.77680,8357
3.77942,7769
3.78202,9119
3.78463,8170
3.78723,8324
3.78983,9933
3.79245,7730
3.79505,8211
3.79767,7355
3.80027,9048
3.80287,8141
3.80548,9526
3.80808,7399
3.81070,7280
3.81330,9084
3.81592,9761
3.81852,9463
3.82112,7926
3.82373,8685
3.82633,9936
3.82895,10219
3.83155,8842
3.83415,8841
3.83677,8962
3.83937,9644
3.84198,8385
3.84458,8895
3.84718,8095
3.84980,7461
3.85240,9942
3.85502,9155
3.85762,8503
3.86022,9349
3.86283,8026
3.86543,8127
3.86805,8034
3.87065,9297
3.87325,7955
3.87587,8245
3.87847,8455
3.88108,8227
3.88368,8474
3.88628,8849
3.88890,9033
3.89150,7995
3.89412,9144
3.89672,8407
3.89933,8206
3.90193,7525
3.90453,8423
3.90715,7575
3.90975,8619
3.91237,7982
3.91497,9102
3.91757,9645
3.92018,8705
3.92278,7663
3.92540,9512
3.92800,10151
3.93060,10789
3.93322,12515
3.93582,14713
3.93843,15687
3.94103,14789
3.94363,14813
3.94625,12490
3.94885,10511
3.95147,10544
3.95407,10968
3.95667,9277
3.95928,9633
3.96188,8838
3.96450,9422
3.96710,9085
3.96970,9184
3.97232,9560
3.97492,9742
3.97753,7808
3.98013,9097
3.98275,9917
3.98535,7458
3.98795,8629
3.99057,8539
3.99317,8715
3.99578,8207
3.99838,7537
4.00098,8255
4.00360,7352
4.00620,8445
4.00882,7266
4.01142,8934
4.01402,8712
4.01663,8372
4.01923,8834
4.02185,7326
4.02445,9700
4.02705,8035
4.02967,8002
4.03227,8935
4.03488,7272
4.03748,8967
4.04008,9605
4.04270,8160
4.04530,8707
4.04792,9161
4.05052,7891
4.05312,7970
4.05573,7674
4.05833,9236
4.06095,9054
4.06355,7230
4.06617,8040
4.06877,7437
4.07137,8503
4.07398,6908
4.07658,7611
4.07920,7826
4.08180,7472
4.08440,8371
4.08702,8751
4.08962,9077
4.09223,10064
4.09483,8442
4.09743,8930
4.10005,9141
4.10265,7562
4.10527,7289
4.10787,10121
4.11047,9028
4.11308,8451
4.11568,7616
4.11830,8874
4.12090,8410
4.12350,7706
4.12612,9288
4.12872,9648
4.13133,8146
4.13393,8717
4.13653,8174
4.13915,9116
4.14175,7848
4.14437,9162
4.14697,7309
4.14958,7497
4.15218,8868
4.15478,7785
4.15740,7413
4.16000,8604
4.16262,9385
4.16522,7186
4.16782,8051
4.17043,8166
4.17303,6573
4.17565,7126
4.17825,8898
4.18085,8557
4.18347,9946
4.18607,8603
4.18868,8257
4.19128,7984
4.19388,9681
4.19650,8267
4.19910,7658
4.20172,8250
4.20432,7537
4.20692,7711
4.20953,8369
4.21213,9545
4.21475,9731
4.21735,8508
4.21995,7786
4.22257,7422
4.22517,7641
4.22778,6680
4.23038,8685
4.23300,7838
4.23560,7272
4.23820,9042
4.24082,8338
4.24342,8437
4.24603,9006
4.24863,7520
4.25123,7976
4.25385,8740
4.25645,7965
4.25907,8198
4.26167,7618
4.26427,9248
4.26688,9188
4.26948,8680
4.27210,7969
4.27470,7839
4.27730,8296
4.27992,9374
4.28252,8209
4.28513,8114
4.28773,9022
4.29033,8668
4.29295,8629
4.29555,8744
4.29817,8406
4.30077,7903
4.30337,8584
4.30598,8086
4.30858,9362
4.31120,8107
4.31380,8609
4.31642,7555
4.31902,9138
4.32162,9254
4.32423,8978
4.32683,9387
4.32945,8398
4.33205,8587
4.33465,7283
4.33727,9380
4.33987,7356
4.34248,8297
4.34508,7911
4.34768,7052
4.35030,9411
4.35290,8185
4.35552,7596
4.35812,9064
4.36072,8089
4.36333,8551
4.36593,7404
4.36855,8564
4.37115,8346
4.37375,7585
4.37637,8026
4.37897,7880
4.38158,8023
4.38418,7824
4.38678,6786
4.38940,8582
4.39200,9029
4.39462,8411
4.39722,7636
4.39983,7651
4.40243,8513
4.40503,7236
4.40765,8201
4.41025,9160
4.41287,9965
4.41547,8608
4.41807,9333
4.42068,9144
4.42328,9325
4.42590,9169
4.42850,8359
4.43110,7590
4.43372,8198
4.43632,7374
4.43893,7577
4.44153,8422
4.44413,8227
4.44675,6753
4.44935,9980
4.45197,7302
4.45457,6903
4.45717,8701
4.45978,8318
4.46238,7798
4.46500,7960
4.46760,8073
4.47020,7376
4.47282,7902
4.47542,8696
4.47803,7352
4.48063,7987
4.48325,8109
4.48585,6532
4.48845,8049
4.49107,8903
4.49367,8327
4.49628,7949
4.49888,9084
4.50148,8556
4.50410,7246
4.50670,7910
4.50932,8760
4.51192,8910
4.51452,9004
4.51713,8264
4.51973,7756
4.52235,8508
4.52495,7982
4.52755,8651
4.53017,7826
4.53277,6831
4.53538,9116
4.53798,9350
4.54058,8476
4.54320,7727
4.54580,9128
4.54842,9058
4.55102,7428
4.55362,8190
4.55623,8482
4.55883,7897
4.56145,8918
4.56405,7774
4.56667,8171
4.56927,7950
4.57187,8159
4.57448,7666
4.57708,8720
4.57970,7704
4.58230,9209
4.58490,7851
4.58752,8269
4.59012,7549
4.59273,8660
4.59533,9441
4.59793,8406
4.60055,7901
4.60315,8704
4.60577,8327
4.60837,7436
4.61097,8845
4.61358,9282
4.61618,8222
4.61880,8598
4.62140,8371
4.62400,8273
4.62662,8609
4.62922,8792
4.63183,7809
4.63443,9058
4.63703,8600
4.63965,8058
4.64225,8585
4.64487,9147
4.64747,8496
4.65008,8588
4.65268,8375
4.65528,7902
4.65790,7770
4.66050,7740
4.66312,8354
4.66572,8300
4.66832,8389
4.67093,8368
4.67353,7238
4.67615,8191
4.67875,7985
4.68135,7670
4.68397,9577
4.68657,8386
4.68918,8977
4.69178,8766
4.69438,8643
4.69700,9555
4.69960,8333
4.70222,8394
4.70482,8028
4.70742,7891
4.71003,8298
4.71263,8634
4.71525,7874
4.71785,8976
4.72045,8887
4.72307,8445
4.72567,9236
4.72828,7748
4.73088,7826
4.73350,7588
4.73610,8440
4.73870,7975
4.74132,9283
4.74392,8184
4.74653,8142
4.74913,8462
4.75173,7496
4.75435,8269
4.75695,8033
4.75957,7060
4.76217,7669
4.76477,7595
4.76738,9249
4.76998,8984
4.77260,7685
4.77520,7570
4.77780,10941
4.78042,27171
4.78302,91037
4.78563,270390
4.78823,660665
4.79083,1385783
4.79345,2508345
4.79605,3971577
4.79867,5619706
4.80127,7380220
4.80387,8957522
4.80648,1.047355E+07
4.80908,1.204803E+07
4.81170,1.341077E+07
4.81430,1.380123E+07
4.81692,1.023779E+07
4.81952,3770126
4.82212,1060939
4.82473,472003
4.82733,313973
4.82995,244885
4.83255,189908
4.83515,163748
4.83777,144861
4.84037,126893
4.84298,111126
4.84558,102276
4.84818,90568
4.85080,84911
4.85340,79636
4.85602,75682
4.85862,69699
4.86122,66687
4.86383,62785
4.86643,60766
4.86905,56545
4.87165,53708
4.87425,53343
4.87687,48150
4.87947,47061
4.88208,41276
4.88468,42366
4.88728,42423
4.88990,38893
4.89250,37373
4.89512,38322
4.89772,34319
4.90033,36418
4.90293,36515
4.90553,36464
4.90815,30580
4.91075,31166
4.91337,33560
4.91597,33634
4.91857,30642
4.92118,30462
4.92378,28477
4.92640,29287
4.92900,28536
4.93160,26640
4.93422,27064
4.93682,25026
4.93943,25188
4.94203,24383
4.94463,22847
4.94725,23601
4.94985,22722
4.95247,24361
4.95507,22096
4.95767,20908
4.96028,22719
4.96288,21229
4.96550,23450
4.96810,21960
4.97070,20727
4.97332,20603
4.97592,23183
4.97853,19994
4.98113,18059
4.98375,19330
4.98635,20740
4.98895,19106
4.99157,18265
4.99417,19797
4.99678,19497
4.99938,19104
5.00198,19372
5.00460,18342
5.00720,18404
5.00982,19388
5.01242,17099
5.01502,19456
5.01763,17419
5.02023,16885
5.02285,18335
5.02545,17899
5.02805,17560
5.03067,16301
5.03327,17338
5.03588,16589
5.03848,17492
5.04108,17572
5.04370,16244
5.04630,15134
5.04892,14952
5.05152,15730
5.05412,15809
5.05673,17383
5.05933,14978
5.06195,15474
5.06455,14047
5.06717,14759
5.06977,14538
5.07237,15891
5.07498,14148
5.07758,15087
5.08020,13897
5.08280,15410
5.08540,15508
5.08802,15262
5.09062,15703
5.09323,16540
5.09583,14243
5.09843,16318
5.10105,16501
5.10365,17709
5.10627,18015
5.10887,18488
5.11147,18060
5.11408,19220
5.11668,15886
5.11930,17784
5.12190,14739
5.12450,14178
5.12712,13310
5.12972,13370
5.13233,13978
5.13493,15297
5.13753,13952
5.14015,12247
5.14275,14254
5.14537,15369
5.14797,12968
5.15058,13276
5.15318,11519
5.15578,15240
5.15840,13984
5.16100,13047
5.16362,12730
5.16622,14978
5.16882,14630
5.17143,11781
5.17403,14782
5.17665,12444
5.17925,14318
5.18185,11928
5.18447,11393
5.18707,12192
5.18968,11802
5.19228,9648
5.19488,14525
5.19750,11719
5.20010,12843
5.20272,12244
5.20532,11208
5.20792,12950
5.21053,12709
5.21313,13412
5.21575,12545
5.21835,11769
5.22095,12014
5.22357,12101
5.22617,13937
5.22878,12561
5.23138,12207
5.23400,12391
5.23660,12516
5.23920,11943
5.24182,12868
5.24442,11989
5.24703,10748
5.24963,11548
5.25223,12393
5.25485,13038
5.25745,11647
5.26007,11640
5.26267,11615
5.26527,12013
5.26788,10918
5.27048,11320
5.27310,11997
5.27570,11752
5.27830,13383
5.28092,11538
5.28352,10544
5.28613,10872
5.28873,13134
5.29133,10574
5.29395,11013
5.29655,13185
5.29917,11317
5.30177,13327
5.30437,12485
5.30698,10803
5.30958,11532
5.31220,11854
5.31480,11178
5.31742,11792
5.32002,11377
5.32262,11199
5.32523,10175
5.32783,11389
5.33045,12294
5.33305,10078
5.33565,12272
5.33827,11364
5.34087,12013
5.34348,11675
5.34608,11336
5.34868,11434
5.35130,10294
5.35390,11808
5.35652,12149
5.35912,12051
5.36172,10515
5.36433,12205
5.36693,11035
5.36955,10013
5.37215,9784
5.37475,12357
5.37737,11965
5.37997,10975
5.38258,11703
5.38518,10470
5.38778,11915
5.39040,11873
5.39300,9622
5.39562,10404
5.39822,11375
5.40083,11408
5.40343,11929
5.40603,10486
5.40865,10927
5.41125,11202
5.41387,10076
5.41647,10240
5.41907,10627
5.42168,10457
5.42428,11990
5.42690,12124
5.42950,12058
5.43210,9239
5.43472,10500
5.43732,9572
5.43993,9983
5.44253,10626
5.44513,9748
5.44775,11210
5.45035,10386
5.45297,14841
5.45557,15042
5.45817,14549
5.46078,15576
5.46338,13938
5.46600,13628
5.46860,12600
5.47120,10857
5.47382,11065
5.47642,10126
5.47903,10762
5.48163,11535
5.48425,11057
5.48685,10821
5.48945,10176
5.49207,10577
5.49467,12236
5.49728,9265
5.49988,11635
5.50248,11533
5.50510,9233
5.50770,10438
5.51032,9543
5.51292,10964
5.51552,10625
5.51813,9989
5.52073,10764
5.52335,10290
5.52595,10749
5.52855,10556
5.53117,9840
5.53377,13179
5.53638,9174
5.53898,10423
5.54158,10806
5.54420,11800
5.54680,10617
5.54942,10441
5.55202,10186
5.55463,11138
5.55723,11249
5.55983,10806
5.56245,11348
5.56505,10693
5.56767,9520
5.57027,10162
5.57287,9622
5.57548,11404
5.57808,11798
5.58070,12693
5.58330,10603
5.58590,10850
5.58852,10772
5.59112,9821
5.59373,10525
5.59633,10265
5.59893,10684
5.60155,11554
5.60415,11594
5.60677,11162
5.60937,10270
5.61197,10703
5.61458,10409
5.61718,10959
5.61980,11136
5.62240,10072
5.62500,10323
5.62762,10408
5.63022,9680
5.63283,8634
5.63543,11314
5.63805,10968
5.64065,9001
5.64325,10493
5.64587,10448
5.64847,9330
5.65108,10130
5.65368,10619
5.65628,9862
5.65890,9031
5.66150,10319
5.66412,10085
5.66672,10445
5.66932,10295
5.67193,12097
5.67453,10740
5.67715,9922
5.67975,10460
5.68235,10114
5.68497,12380
5.68757,8883
5.69018,10313
5.69278,9307
5.69538,9837
5.69800,10433
5.70060,11557
5.70322,12484
5.70582,11979
5.70842,12954
5.71103,12742
5.71363,9550
5.71625,11309
5.71885,11880
5.72147,11710
5.72407,11321
5.72667,11658
5.72928,9618
5.73188,10111
5.73450,11445
5.73710,11135
5.73970,9976
5.74232,11150
5.74492,11381
5.74753,10510
5.75013,10621
5.75273,10095
5.75535,9655
5.75795,9071
5.76057,10070
5.76317,10203
5.76577,10658
5.76838,10506
5.77098,11390
5.77360,10779
5.77620,11951
5.77880,11011
5.78142,11853
5.78402,11730
5.78663,10238
5.78923,9900
5.79183,10493
5.79445,11161
5.79705,11148
5.79967,9457
5.80227,11487
5.80488,10873
5.80748,10763
5.81008,12068
5.81270,17351
5.81530,30045
5.81792,43648
5.82052,57830
5.82312,65121
5.82573,59587
5.82833,45671
5.83095,29832
5.83355,20326
5.83615,17644
5.83877,14031
5.84137,16047
5.84398,16216
5.84658,18844
5.84918,14921
5.85180,15733
5.85440,13849
5.85702,12316
5.85962,10229
5.86222,11057
5.86483,11888
5.86743,11389
5.87005,11120
5.87265,10897
5.87525,11522
5.87787,11755
5.88047,12930
5.88308,10390
5.88568,12146
5.88830,11929
5.89090,11893
5.89350,10600
5.89612,10756
5.89872,11319
5.90133,12994
5.90393,11195
5.90653,11667
5.90915,12430
5.91175,10050
5.91437,12214
5.91697,11733
5.91957,10654
5.92218,12643
5.92478,12631
5.92740,12393
5.93000,12472
5.93260,13755
5.93522,14528
5.93782,17768
5.94043,15347
5.94303,13810
5.94563,14441
5.94825,15939
5.95085,12584
5.95347,13119
5.95607,14843
5.95867,13132
5.96128,13216
5.96388,11981
5.96650,12423
5.96910,12462
5.97172,11509
5.97432,11563
5.97692,13237
5.97953,13064
5.98213,12615
5.98475,12220
5.98735,11500
5.98995,12162
5.99257,11281
5.99517,12131
5.99778,11558
6.00038,11690
6.00298,10608
6.00560,11237
6.00820,13406
6.01082,11312
6.01342,11343
6.01602,9905
6.01863,12932
6.02123,11730
6.02385,10659
6.02645,11151
6.02905,12225
6.03167,12533
6.03427,13522
6.03688,12790
6.03948,10611
6.04208,11861
6.04470,14334
6.04730,15070
6.04992,19217
6.05252,18291
6.05513,20052
6.05773,19165
6.06033,17487
6.06295,15075
6.06555,16603
6.06817,16932
6.07077,16518
6.07337,15530
6.07598,15068
6.07858,16421
6.08120,12188
6.08380,12313
6.08640,13546
6.08902,12197
6.09162,10997
6.09423,12787
6.09683,13883
6.09943,11574
6.10205,14447
6.10465,13022
6.10727,13165
6.10987,12398
6.11247,12911
6.11508,13728
6.11768,13717
6.12030,13400
6.12290,13759
6.12550,13023
6.12812,13979
6.13072,13319
6.13333,14765
6.13593,14454
6.13855,12066
6.14115,11207
6.14375,11168
6.14637,13552
6.14897,12747
6.15158,12066
6.15418,11813
6.15678,11543
6.15940,10618
6.16200,11551
6.16462,10735
6.16722,10189
6.16982,12068
6.17243,11564
6.17503,13306
6.17765,13576
6.18025,12310
6.18285,10939
6.18547,12545
6.18807,12420
6.19068,11018
6.19328,11120
6.19588,12588
6.19850,10841
6.20110,12692
6.20372,11047
6.20632,11716
6.20892,11961
6.21153,12190
6.21413,11380
6.21675,10585
6.21935,10917
6.22197,11536
6.22457,10007
6.22717,12054
6.22978,10171
6.23238,9806
6.23500,10681
6.23760,10780
6.24020,10965
6.24282,10561
6.24542,12648
6.24803,12087
6.25063,11039
6.25323,11881
6.25585,10436
6.25845,12425
6.26107,11223
6.26367,11792
6.26627,12046
6.26888,11583
6.27148,11992
6.27410,11937
6.27670,11970
6.27930,12023
6.28192,11566
6.28452,11993
6.28713,12681
6.28973,11994
6.29233,11926
6.29495,12505
6.29755,12188
6.30017,12358
6.30277,10179
6.30538,10019
6.30798,11507
6.31058,11207
6.31320,10922
6.31580,10471
6.31842,10758
6.32102,11369
6.32362,11193
6.32623,10638
6.32883,11886
6.33145,11163
6.33405,11295
6.33665,11714
6.33927,11303
6.34187,11905
6.34448,11346
6.34708,12136
6.34968,13320
6.35230,11519
6.35490,12630
6.35752,12533
6.36012,11286
6.36272,10958
6.36533,11236
6.36793,10240
6.37055,12645
6.37315,12080
6.37575,12377
6.37837,11711
6.38097,9754
6.38358,11861
6.38618,10890
6.38880,11158
6.39140,11675
6.39400,11511
6.39662,11533
6.39922,13458
6.40183,11590
6.40443,13134
6.40703,12474
6.40965,11198
6.41225,12792
6.41487,12929
6.41747,12133
6.42007,12711
6.42268,11871
6.42528,11342
6.42790,10572
6.43050,10133
6.43310,11906
6.43572,11518
6.43832,11284
6.44093,11965
6.44353,11080
6.44613,9639
6.44875,10681
6.45135,11005
6.45397,9678
6.45657,11849
6.45917,9840
6.46178,11951
6.46438,11602
6.46700,10907
6.46960,12015
6.47222,12688
6.47482,11353
6.47742,12166
6.48003,12504
6.48263,11787
6.48525,12479
6.48785,14099
6.49045,12203
6.49307,13875
6.49567,10635
6.49828,12113
6.50088,12717
6.50348,12971
6.50610,13324
6.50870,12744
6.51132,14911
6.51392,12041
6.51652,12849
6.51913,13309
6.52173,11665
6.52435,12347
6.52695,11689
6.52955,12065
6.53217,11553
6.53477,11426
6.53738,10946
6.53998,11172
6.54258,9722
6.54520,12455
6.54780,11208
6.55042,11488
6.55302,12622
6.55563,10746
6.55823,10792
6.56083,11041
6.56345,11182
6.56605,12293
6.56867,11165
6.57127,13635
6.57387,11975
6.57648,10977
6.57908,11976
6.58170,12421
6.58430,13530
6.58690,16922
6.58952,40207
6.59212,139591
6.59473,549679
6.59733,1948173
6.59993,5135324
6.60255,1.021019E+07
6.60515,1.665878E+07
6.60777,2.125991E+07
6.61037,2.509433E+07
6.61297,2.629002E+07
6.61558,2.095012E+07
6.61818,1.065724E+07
6.62080,3361148
6.62340,960282
6.62600,383804
6.62862,225818
6.63122,167603
6.63383,138587
6.63643,109441
6.63905,96964
6.64165,86415
6.64425,78037
6.64687,69818
6.64947,66611
6.65208,60208
6.65468,54033
6.65728,51041
6.65990,48667
6.66250,46045
6.66512,44591
6.66772,43264
6.67032,40556
6.67293,37690
6.67553,39217
6.67815,37633
6.68075,35395
6.68335,31154
6.68597,31962
6.68857,30754
6.69118,33205
6.69378,29987
6.69638,32377
6.69900,29483
6.70160,28525
6.70422,27290
6.70682,27341
6.70942,25757
6.71203,25656
6.71463,25758
6.71725,24956
6.71985,24037
6.72247,25097
6.72507,23288
6.72767,22459
6.73028,21862
6.73288,24576
6.73550,21384
6.73810,22581
6.74070,23246
6.74332,22825
6.74592,19649
6.74853,23968
6.75113,20650
6.75373,20396
6.75635,22777
6.75895,20647
6.76157,21247
6.76417,23012
6.76677,20939
6.76938,21622
6.77198,21211
6.77460,20233
6.77720,19244
6.77980,20844
6.78242,18469
6.78502,18878
6.78763,17075
6.79023,19960
6.79283,18536
6.79545,19494
6.79805,19057
6.80067,19086
6.80327,19104
6.80588,18827
6.80848,17102
6.81108,18948
6.81370,17672
6.81630,18207
6.81892,16524
6.82152,17601
6.82412,19938
6.82673,17766
6.82933,17527
6.83195,16906
6.83455,18203
6.83715,18102
6.83977,16280
6.84237,18220
6.84498,16953
6.84758,17494
6.85018,16918
6.85280,16961
6.85540,17950
6.85802,20421
6.86062,26367
6.86322,36637
6.86583,42057
6.86843,43159
6.87105,41649
6.87365,32108
6.87625,26714
6.87887,26571
6.88147,23699
6.88408,21795
6.88668,20111
6.88930,18805
6.89190,19252
6.89450,21096
6.89712,17758
6.89972,18246
6.90233,18410
6.90493,18039
6.90753,18816
6.91015,16840
6.91275,15943
6.91537,16051
6.91797,15781
6.92057,17855
6.92318,19028
6.92578,18932
6.92840,17328
6.93100,19250
6.93360,22025
6.93622,22554
6.93882,26073
6.94143,23377
6.94403,23303
6.94663,17460
6.94925,19515
6.95185,18550
6.95447,19464
6.95707,20184
6.95967,18212
6.96228,18901
6.96488,19102
6.96750,16586
6.97010,17268
6.97272,17713
6.97532,17455
6.97792,17142
6.98053,18313
6.98313,15621
6.98575,17065
6.98835,17029
6.99095,18202
6.99357,16545
6.99617,16341
6.99878,14760
7.00138,17705
7.00398,17051
7.00660,16671
7.00920,17443
7.01182,18070
7.01442,18719
7.01702,14738
7.01963,15550
7.02223,18131
7.02485,16638
7.02745,14810
7.03005,16588
7.03267,16257
7.03527,16064
7.03788,15937
7.04048,16032
7.04308,15469
7.04570,16614
7.04830,15747
7.05092,20778
7.05352,19323
7.05613,17608
7.05873,18852
7.06133,17885
7.06395,17091
7.06655,16204
7.06917,16243
7.07177,16322
7.07437,15267
7.07698,16545
7.07958,16855
7.08220,17499
7.08480,16411
7.08740,15938
7.09002,14799
7.09262,17010
7.09523,15893
7.09783,16415
7.10043,18047
7.10305,16502
7.10565,15694
7.10827,19687
7.11087,14845
7.11347,15550
7.11608,18725
7.11868,15312
7.12130,16038
7.12390,17412
7.12650,16061
7.12912,16805
7.13172,16393
7.13433,16615
7.13693,16288
7.13955,15320
7.14215,17327
7.14475,17631
7.14737,16900
7.14997,16846
7.15258,17633
7.15518,17181
7.15778,16784
7.16040,17765
7.16300,14478
7.16562,15772
7.16822,16535
7.17082,16234
7.17343,16519
7.17603,16482
7.17865,16298
7.18125,15627
7.18385,16537
7.18647,18054
7.18907,16386
7.19168,18913
7.19428,15593
7.19688,17621
7.19950,14903
7.20210,16399
7.20472,16682
7.20732,17308
7.20992,19226
7.21253,19009
7.21513,20672
7.21775,19993
7.22035,16682
7.22297,18206
7.22557,15878
7.22817,16670
7.23078,14729
7.23338,17630
7.23600,18715
7.23860,18786
7.24120,17342
7.24382,19519
7.24642,17854
7.24903,18968
7.25163,17404
7.25423,16714
7.25685,16556
7.25945,16943
7.26207,16430
7.26467,16821
7.26727,15184
7.26988,16308
7.27248,16179
7.27510,17727
7.27770,17382
7.28030,17344
7.28292,17520
7.28552,16550
7.28813,17801
7.29073,15720
7.29333,15726
7.29595,15180
7.29855,16751
7.30117,17008
7.30377,16689
7.30638,16561
7.30898,17725
7.31158,17995
7.31420,17846
7.31680,18928
7.31942,15540
7.32202,17816
7.32462,17002
7.32723,16337
7.32983,16935
7.33245,19907
7.33505,15380
7.33765,15982
7.34027,15386
7.34287,17786
7.34548,16406
7.34808,13942
7.35068,16386
7.35330,15964
7.35590,16260
7.35852,16463
7.36112,17761
7.36372,17517
7.36633,16917
7.36893,16510
7.37155,17123
7.37415,17110
7.37675,17245
7.37937,16720
7.38197,15143
7.38458,16215
7.38718,16918
7.38980,18261
7.39240,18570
7.39500,17198
7.39762,16456
7.40022,17426
7.40283,18156
7.40543,17936
7.40803,16672
7.41065,18017
7.41325,17862
7.41587,16302
7.41847,17466
7.42107,15745
7.42368,18465
7.42628,18858
7.42890,18901
7.43150,18605
7.43410,17357
7.43672,19424
7.43932,17327
7.44193,14126
7.44453,15930
7.44713,17434
7.44975,18494
7.45235,16800
7.45497,16425
7.45757,17998
7.46017,18231
7.46278,17863
7.46538,16636
7.46800,17297
7.47060,16506
7.47322,18946
7.47582,18877
7.47842,16327
7.48103,17998
7.48363,17361
7.48625,19954
7.48885,18830
7.49145,18504
7.49407,18554
7.49667,19006
7.49928,19901
7.50188,18305
7.50448,18876
7.50710,18358
7.50970,17079
7.51232,16911
7.51492,17337
7.51752,19874
7.52013,21994
7.52273,26576
7.52535,29383
7.52795,31866
7.53055,31619
7.53317,29329
7.53577,23159
7.53838,21821
7.54098,20460
7.54358,18906
7.54620,19201
7.54880,18725
7.55142,20215
7.55402,17457
7.55663,19495
7.55923,17632
7.56183,20394
7.56445,20045
7.56705,19152
7.56967,21342
7.57227,19316
7.57487,19731
7.57748,22545
7.58008,21961
7.58270,21858
7.58530,24363
7.58790,22007
7.59052,19460
7.59312,20853
7.59573,19215
7.59833,22257
7.60093,19170
7.60355,20900
7.60615,21005
7.60877,19734
7.61137,19405
7.61397,20472
7.61658,20702
7.61918,20291
7.62180,18702
7.62440,21917
7.62700,21121
7.62962,19458
7.63222,20641
7.63483,18513
7.63743,19149
7.64005,20033
7.64265,19246
7.64525,22997
7.64787,18452
7.65047,17476
7.65308,21074
7.65568,21332
7.65828,20207
7.66090,20979
7.66350,17801
7.66612,20131
7.66872,22037
7.67132,20593
7.67393,22221
7.67653,25929
7.67915,27671
7.68175,26049
7.68435,24447
7.68697,22825
7.68957,22068
7.69218,23094
7.69478,21152
7.69738,21520
7.70000,19428
7.70260,21553
7.70522,20359
7.70782,21443
7.71042,19500
7.71303,21648
7.71563,22697
7.71825,21824
7.72085,20330
7.72347,21467
7.72607,19263
7.72867,21505
7.73128,21768
7.73388,17948
7.73650,19542
7.73910,22221
7.74170,20604
7.74432,21582
7.74692,20177
7.74953,19748
7.75213,20757
7.75473,22525
7.75735,20324
7.75995,21122
7.76257,22729
7.76517,19258
7.76777,21394
7.77038,22095
7.77298,21477
7.77560,20943
7.77820,20655
7.78080,22374
7.78342,21979
7.78602,21007
7.78863,21397
7.79123,22949
7.79383,24939
7.79645,22708
7.79905,22349
7.80167,22548
7.80427,21974
7.80688,21348
7.80948,20976
7.81208,22400
7.81470,24991
7.81730,22904
7.81992,24176
7.82252,25147
7.82512,26310
7.82773,28596
7.83033,29203
7.83295,27731
7.83555,26925
7.83815,23979
7.84077,24209
7.84337,24721
7.84598,23177
7.84858,21183
7.85118,21473
7.85380,24210
7.85640,22139
7.85902,23346
7.86162,22745
7.86422,25294
7.86683,22652
7.86943,25108
7.87205,22364
7.87465,22155
7.87725,24039
7.87987,20326
7.88247,23050
7.88508,25075
7.88768,24610
7.89030,22283
7.89290,23268
7.89550,24031
7.89812,25693
7.90072,26340
7.90333,25680
7.90593,24446
7.90853,27718
7.91115,28020
7.91375,25153
7.91637,27071
7.91897,24269
7.92157,24489
7.92418,25420
7.92678,23364
7.92940,25562
7.93200,24145
7.93460,24938
7.93722,24304
7.93982,22452
7.94243,23706
7.94503,23859
7.94763,25432
7.95025,24735
7.95285,26208
7.95547,25483
7.95807,24271
7.96067,25677
7.96328,25432
7.96588,24809
7.96850,25060
7.97110,25054
7.97372,25556
7.97632,25030
7.97892,24861
7.98153,25167
7.98413,25725
7.98675,24589
7.98935,24561
7.99195,26865
7.99457,23064
7.99717,22702
7.99978,25614
8.00238,25259
8.00498,26819
8.00760,24633
8.01020,25580
8.01282,25278
8.01542,26257
8.01802,25747
8.02063,27241
8.02323,27506
8.02585,25038
8.02845,28015
8.03105,26003
8.03367,27424
8.03627,25868
8.03888,27576
8.04148,27521
8.04408,26552
8.04670,26072
8.04930,28178
8.05192,26221
8.05452,30676
8.05713,48415
8.05973,113019
8.06233,369469
8.06495,1316609
8.06755,3935819
8.07017,8173268
8.07277,1.332811E+07
8.07537,1.694928E+07
8.07798,1.827663E+07
8.08058,1.5948E+07
8.08320,1.03558E+07
8.08580,5438676
8.08840,2863466
8.09102,1720438
8.09362,1209183
8.09623,919967
8.09883,729467
8.10143,593842
8.10405,501921
8.10665,438799
8.10927,362635
8.11187,320808
8.11447,299117
8.11708,270073
8.11968,241141
8.12230,218954
8.12490,201816
8.12750,187691
8.13012,171392
8.13272,165447
8.13533,153077
8.13793,139589
8.14055,127423
8.14315,121644
8.14575,116647
8.14837,112950
8.15097,104775
8.15358,99335
8.15618,94727
8.15878,95251
8.16140,91652
8.16400,86359
8.16662,83389
8.16922,82134
8.17182,81566
8.17443,74087
8.17703,74115
8.17965,70561
8.18225,73404
8.18485,71806
8.18747,65592
8.19007,64579
8.19268,61005
8.19528,60821
8.19788,58803
8.20050,56868
8.20310,56601
8.20572,56482
8.20832,56154
8.21092,56270
8.21353,57677
8.21613,58016
8.21875,52010
8.22135,51871
8.22397,50565
8.22657,47335
8.22917,52577
8.23178,50273
8.23438,49235
8.23700,47429
8.23960,47433
8.24220,46644
8.24482,47027
8.24742,43413
8.25003,42188
8.25263,43325
8.25523,44325
8.25785,45241
8.26045,45010
8.26307,41954
8.26567,42596
8.26827,43848
8.27088,41240
8.27348,40817
8.27610,45829
8.27870,41246
8.28130,45129
8.28392,40491
8.28652,43808
8.28913,41529
8.29173,41328
8.29433,40196
8.29695,44061
8.29955,42905
8.30217,45326
8.30477,42486
8.30738,41978
8.30998,44535
8.31258,40715
8.31520,42299
8.31780,42163
8.32042,41798
8.32302,43033
8.32562,40863
8.32823,40059
8.33083,40790
8.33345,42883
8.33605,43099
8.33865,41141
8.34127,43289
8.34387,40572
8.34648,41071
8.34908,45201
8.35168,43800
8.35430,38499
8.35690,39982
8.35952,42673
8.36212,40826
8.36472,40618
8.36733,40805
8.36993,41466
8.37255,39304
8.37515,39869
8.37775,42279
8.38037,42607
8.38297,40766
8.38558,42517
8.38818,42581
8.39080,42898
8.39340,44998
8.39600,42365
8.39862,41412
8.40122,42296
8.40383,39978
8.40643,42225
8.40903,42533
8.41165,45027
8.41425,44280
8.41687,42020
8.41947,42141
8.42207,46680
8.42468,41952
8.42728,42391
8.42990,44883
8.43250,43480
8.43510,43941
8.43772,43561
8.44032,44909
8.44293,46071
8.44553,43669
8.44813,42988
8.45075,47390
8.45335,42741
8.45597,47866
8.45857,48001
8.46117,44619
8.46378,43569
8.46638,47363
8.46900,44398
8.47160,49745
8.47422,48551
8.47682,54572
8.47942,52346
8.48203,48580
8.48463,50263
8.48725,50403
8.48985,49455
8.49245,50501
8.49507,48690
8.49767,48096
8.50028,48727
8.50288,51687
8.50548,51928
8.50810,59181
8.51070,64906
8.51332,62856
8.51592,60795
8.51852,57548
8.52113,54822
8.52373,53874
8.52635,51227
8.52895,54883
8.53155,52616
8.53417,53864
8.53677,54095
8.53938,58274
8.54198,53439
8.54458,51709
8.54720,53656
8.54980,53654
8.55242,49808
8.55502,54191
8.55763,54729
8.56023,52484
8.56283,53492
8.56545,55112
8.56805,56886
8.57067,56409
8.57327,52351
8.57587,53918
8.57848,55089
8.58108,58402
8.58370,56866
8.58630,56283
8.58890,57549
8.59152,59666
8.59412,58847
8.59673,57400
8.59933,56057
8.60193,60253
8.60455,56217
8.60715,58055
8.60977,57466
8.61237,57414
8.61497,59988
8.61758,61676
8.62018,58020
8.62280,60200
8.62540,58332
8.62800,64712
8.63062,62521
8.63322,60431
8.63583,61160
8.63843,62043
8.64105,60681
8.64365,62522
8.64625,63690
8.64887,59136
8.65147,63494
8.65408,65394
8.65668,63245
8.65928,67001
8.66190,63765
8.66450,63936
8.66712,65226
8.66972,64887
8.67232,66928
8.67493,67102
8.67753,65319
8.68015,65428
8.68275,67961
8.68535,66185
8.68797,70108
8.69057,70973
8.69318,70832
8.69578,70110
8.69838,71179
8.70100,70380
8.70360,73071
8.70622,72938
8.70882,77486
8.71142,77746
8.71403,76820
8.71663,78759
8.71925,82407
8.72185,75019
8.72447,79132
8.72707,78121
8.72967,82469
8.73228,81403
8.73488,77641
8.73750,76279
8.74010,75092
8.74270,77975
8.74532,77836
8.74792,78377
8.75053,72551
8.75313,76705
8.75573,77295
8.75835,75359
8.76095,81399
8.76357,74981
8.76617,77789
8.76877,77376
8.77138,77791
8.77398,78110
8.77660,79446
8.77920,76094
8.78180,78620
8.78442,75773
8.78702,78928
8.78963,81246
8.79223,76659
8.79483,77566
8.79745,78600
8.80005,82138
8.80267,82546
8.80527,81972
8.80788,82174
8.81048,83636
8.81308,78002
8.81570,79343
8.81830,79471
8.82092,84487
8.82352,83031
8.82612,81944
8.82873,83664
8.83133,79626
8.83395,82605
8.83655,84852
8.83915,84919
8.84177,87029
8.84437,88104
8.84698,85776
8.84958,83350
8.85218,84581
8.85480,87292
8.85740,82624
8.86002,86825
8.86262,89022
8.86522,88239
8.86783,84549
8.87043,89342
8.87305,84604
8.87565,89759
8.87825,85424
8.88087,87322
8.88347,83035
8.88608,91948
8.88868,86262
8.89130,87253
8.89390,88736
8.89650,88756
8.89912,88146
8.90172,92339
8.90433,90818
8.90693,89907
8.90953,91379
8.91215,92264
8.91475,93220
8.91737,94250
8.91997,84948
8.92257,91849
8.92518,90663
8.92778,92337
8.93040,93426
8.93300,93526
8.93560,91305
8.93822,94318
8.94082,99823
8.94343,95452
8.94603,92797
8.94863,95202
8.95125,92798
8.95385,89812
8.95647,93780
8.95907,94974
8.96167,91052
8.96428,93237
8.96688,96547
8.96950,94966
8.97210,93203
8.97472,94569
8.97732,92887
8.97992,96944
8.98253,90794
8.98513,91895
8.98775,93000
8.99035,95340
8.99295,94079
8.99557,96170
8.99817,96571
9.00078,96712
9.00338,96067
9.00598,96424
9.00860,96657
9.01120,95139
9.01382,96267
9.01642,97639
9.01902,94449
9.02163,98010
9.02423,95240
9.02685,100370
9.02945,96761
9.03205,100934
9.03467,97734
9.03727,98725
9.03988,97070
9.04248,98065
9.04508,98937
9.04770,102458
9.05030,97938
9.05292,97068
9.05552,95658
9.05813,100056
9.06073,98452
9.06333,97856
9.06595,100368
9.06855,94425
9.07117,95301
9.07377,97956
9.07637,96335
9.07898,98802
9.08158,98970
9.08420,96537
9.08680,94562
9.08940,104508
9.09202,97004
9.09462,100469
9.09723,102211
9.09983,96782
9.10243,100687
9.10505,99091
9.10765,95190
9.11027,100549
9.11287,96822
9.11547,97271
9.11808,96993
9.12068,99058
9.12330,102556
9.12590,95227
9.12850,102333
9.13112,104011
9.13372,101846
9.13633,101614
9.13893,101094
9.14155,103301
9.14415,101268
9.14675,99308
9.14937,99062
9.15197,104771
9.15458,98176
9.15718,100074
9.15978,97170
9.16240,102459
9.16500,99220
9.16762,100324
9.17022,100497
9.17282,99269
9.17543,98461
9.17803,100253
9.18065,100715
9.18325,98621
9.18585,102990
9.18847,102059
9.19107,101655
9.19368,103769
9.19628,100341
9.19888,104540
9.20150,105730
9.20410,102238
9.20672,100935
9.20932,100900
9.21192,105406
9.21453,103718
9.21713,99396
9.21975,100971
9.22235,100640
9.22497,98170
9.22757,99679
9.23017,98977
9.23278,99376
9.23538,97852
9.23800,98585
9.24060,98350
9.24320,102509
9.24582,98990
9.24842,100750
9.25103,99182
9.25363,99445
9.25623,96314
9.25885,104351
9.26145,104903
9.26407,98907
9.26667,101904
9.26927,102111
9.27188,102690
9.27448,104623
9.27710,97122
9.27970,93007
9.28230,102555
9.28492,105152
9.28752,98545
9.29013,96045
9.29273,101212
9.29533,98112
9.29795,102344
9.30055,97424
9.30317,97240
9.30577,99440
9.30838,99677
9.31098,95191
9.31358,98945
9.31620,99093
9.31880,100763
9.32142,101550
9.32402,96021
9.32662,100696
9.32923,99326
9.33183,98730
9.33445,100805
9.33705,99232
9.33965,100047
9.34227,99738
9.34487,101384
9.34748,101324
9.35008,102348
9.35268,98568
9.35530,100970
9.35790,101092
9.36052,101273
9.36312,100583
9.36572,99183
9.36833,104008
9.37093,100423
9.37355,104027
9.37615,102339
9.37875,101463
9.38137,104751
9.38397,99561
9.38658,97492
9.38918,101012
9.39180,101322
9.39440,95824
9.39700,100281
9.39962,101491
9.40222,98514
9.40483,101557
9.40743,98327
9.41003,100565
9.41265,99129
9.41525,97980
9.41787,97708
9.42047,94775
9.42307,98492
9.42568,98012
9.42828,103772
9.43090,101519
9.43350,99886
9.43610,101616
9.43872,98732
9.44132,96758
9.44393,99562
9.44653,102395
9.44913,102843
9.45175,99115
9.45435,100695
9.45697,100110
9.45957,99006
9.46217,104204
9.46478,98836
9.46738,102164
9.47000,101603
9.47260,103204
9.47522,100293
9.47782,105051
9.48042,99498
9.48303,105877
9.48563,105393
9.48825,101491
9.49085,99977
9.49345,95745
9.49607,101750
9.49867,100037
9.50128,100985
9.50388,97765
9.50648,98322
9.50910,97806
9.51170,98866
9.51432,101657
9.51692,101838
9.51952,99867
9.52213,100581
9.52473,99013
9.52735,100407
9.52995,102365
9.53255,99612
9.53517,98657
9.53777,99435
9.54038,102164
9.54298,98860
9.54558,102113
9.54820,101398
9.55080,101552
9.55342,101456
9.55602,98633
9.55863,104840
9.56123,98490
9.56383,100612
9.56645,98357
9.56905,97999
9.57167,100473
9.57427,101757
9.57687,101803
9.57948,100662
9.58208,99058
9.58470,98489
9.58730,100721
9.58990,99020
9.59252,100173
9.59512,98992
9.59773,102443
9.60033,96092
9.60293,99545
9.60555,101837
9.60815,100836
9.61077,98746
9.61337,100092
9.61597,100711
9.61858,97285
9.62118,104708
9.62380,100326
9.62640,102651
9.62900,100483
9.63162,102387
9.63422,100143
9.63683,100885
9.63943,99906
9.64205,100131
9.64465,99685
9.64725,101918
9.64987,96712
9.65247,103273
9.65508,103266
9.65768,98269
9.66028,99700
9.66290,102944
9.66550,99162
9.66812,101132
9.67072,102112
9.67332,103817
9.67593,103707
9.67853,98717
9.68115,102178
9.68375,99911
9.68635,100048
9.68897,98898
9.69157,102707
9.69418,99343
9.69678,98989
9.69938,100377
9.70200,105613
9.70460,101886
9.70722,104620
9.70982,102798
9.71242,97921
9.71503,99026
9.71763,97198
9.72025,102064
9.72285,100156
9.72547,98512
9.72807,103456
9.73067,105825
9.73328,99305
9.73588,101237
9.73850,99994
9.74110,100829
9.74370,103778
9.74632,98294
9.74892,101063
9.75153,101261
9.75413,100086
9.75673,99907
9.75935,100460
9.76195,103180
9.76457,99408
9.76717,101139
9.76977,98513
9.77238,101156
9.77498,101755
9.77760,100040
9.78020,102444
9.78280,103705
9.78542,102574
9.78802,101529
9.79063,98929
9.79323,103923
9.79583,100716
9.79845,98677
9.80105,102695
9.80367,98323
9.80627,98267
9.80888,103391
9.81148,101039
9.81408,101121
9.81670,102090
9.81930,102001
9.82192,99636
9.82452,100250
9.82712,97864
9.82973,99092
9.83233,101830
9.83495,98886
9.83755,99977
9.84015,99622
9.84277,97393
9.84537,102837
9.84798,97295
9.85058,96170
9.85318,99978
9.85580,100743
9.85840,98588
9.86102,103100
9.86362,103015
9.86622,101645
9.86883,102417
9.87143,100127
9.87405,99762
9.87665,100531
9.87925,99089
9.88187,98402
9.88447,99165
9.88708,101173
9.88968,104675
9.89230,96139
9.89490,98219
9.89750,100934
9.90012,102298
9.90272,104677
9.90533,104125
9.90793,100646
9.91053,98185
9.91315,100559
9.91575,101964
9.91837,99456
9.92097,100273
9.92357,101717
9.92618,101296
9.92878,102409
9.93140,93006
9.93400,101112
9.93660,101124
9.93922,98921
9.94182,102323
9.94443,98041
9.94703,106926
9.94963,99745
9.95225,96910
9.95485,102634
9.95747,102100
9.96007,100905
9.96267,102152
9.96528,99895
9.96788,99770
9.97050,98594
9.97310,101214
9.97572,101830
9.97832,100241
9.98092,99421
9.98353,96308
9.98613,100600
9.98875,98446
9.99135,101789
9.99395,102187
9.99657,102642
9.99917,101960
10.00178,98699
10.00438,101301
10.00698,98437
10.00960,100817
10.01220,99892
10.01482,97592
10.01742,101929
10.02002,101969
10.02263,100239
10.02523,100165
10.02785,101190
10.03045,99679
10.03305,101052
10.03567,99717
10.03827,100715
10.04088,97857
10.04348,101116
10.04608,98633
10.04870,100362
10.05130,100547
10.05392,99962
10.05652,101315
10.05913,105128
10.06173,99440
10.06433,101765
10.06695,104020
10.06955,102718
10.07217,101906
10.07477,104412
10.07737,101807
10.07998,102957
10.08258,103390
10.08520,99462
10.08780,102476
10.09040,102131
10.09302,99076
10.09562,101446
10.09823,107847
10.10083,104358
10.10343,102676
10.10605,101863
10.10865,98810
10.11127,98992
10.11387,99451
10.11647,102218
10.11908,99938
10.12168,101621
10.12430,101830
10.12690,98425
10.12950,97402
10.13212,97336
10.13472,105589
10.13733,100726
10.13993,102941
10.14255,99758
10.14515,96104
10.14775,97460
10.15037,100677
10.15297,100969
10.15558,97310
10.15818,101906
10.16078,100400
10.16340,95648
10.16600,100892
10.16862,100970
10.17122,104121
10.17382,102683
10.17643,101774
10.17903,100651
10.18165,99640
10.18425,102989
10.18685,101165
10.18947,103004
10.19207,105673
10.19468,102198
10.19728,102593
10.19988,103970
10.20250,104977
10.20510,101723
10.20772,100757
10.21032,102588
10.21292,104375
10.21553,101747
10.21813,102369
10.22075,106274
10.22335,97209
10.22597,100000
10.22857,104666
10.23117,105037
10.23378,103171
10.23638,98933
10.23900,102912
10.24160,102995
10.24420,99362
10.24682,100998
10.24942,103495
10.25203,101128
10.25463,97218
10.25723,98610
10.25985,101665
10.26245,101092
10.26507,105207
10.26767,99026
10.27027,98811
10.27288,100032
10.27548,99163
10.27810,99282
10.28070,100358
10.28330,97751
10.28592,102968
10.28852,104003
10.29113,102062
10.29373,100507
10.29633,104037
10.29895,102245
10.30155,100605
10.30417,101472
10.30677,99669
10.30938,103486
10.31198,98527
10.31458,100806
10.31720,103017
10.31980,100040
10.32242,101896
10.32502,101924
10.32762,98228
10.33023,103619
10.33283,103473
10.33545,98957
10.33805,100161
10.34065,98977
10.34327,101558
10.34587,105183
10.34848,106161
10.35108,99681
10.35368,102963
10.35630,103994
10.35890,99157
10.36152,102590
10.36412,99112
10.36672,104955
10.36933,104246
10.37193,105498
10.37455,104241
10.37715,102354
10.37975,98256
10.38237,102739
10.38497,104819
10.38758,102432
10.39018,102348
10.39280,102328
10.39540,103097
10.39800,102187
10.40062,103764
10.40322,101724
10.40583,102340
10.40843,103275
10.41103,104573
10.41365,103813
10.41625,102402
10.41887,102013
10.42147,102355
10.42407,101299
10.42668,103210
10.42928,102088
10.43190,102780
10.43450,102065
10.43710,107977
10.43972,102894
10.44232,106095
10.44493,105712
10.44753,100107
10.45013,101554
10.45275,107945
10.45535,104554
10.45797,102096
10.46057,108203
10.46317,102737
10.46578,113104
10.46838,106782
10.47100,101987
10.47360,111608
10.47622,104922
10.47882,107493
10.48142,108831
10.48403,108141
10.48663,108356
10.48925,105802
10.49185,107939
10.49445,108260
10.49707,108281
10.49967,107383
10.50228,108047
10.50488,109229
10.50748,107685
10.51010,108153
10.51270,105324
10.51532,107578
10.51792,105315
10.52052,105356
10.52313,109721
10.52573,103105
10.52835,101504
10.53095,100897
10.53355,103934
10.53617,104659
10.53877,106177
10.54138,101360
10.54398,101772
10.54658,105166
10.54920,104824
10.55180,101798
10.55442,102228
10.55702,104412
10.55963,107878
10.56223,104027
10.56483,102373
10.56745,103107
10.57005,108011
10.57267,103261
10.57527,103972
10.57787,99626
10.58048,102734
10.58308,99706
10.58570,99072
10.58830,105547
10.59090,103598
10.59352,99742
10.59612,102633
10.59873,105300
10.60133,104712
10.60393,105898
10.60655,98472
10.60915,104186
10.61177,102550
10.61437,102335
10.61697,101884
10.61958,105398
10.62218,101102
10.62480,102584
10.62740,102591
10.63000,106268
10.63262,104238
10.63522,103372
10.63783,102891
10.64043,106396
10.64305,103878
10.64565,105577
10.64825,100689
10.65087,100799
10.65347,104739
10.65608,107254
10.65868,100863
10.66128,103040
