D:\data\overige2021\rk\20200201rk_cocacase28x\B039723.D Mon Feb 01 20:34:45 2021
Start of data points
1.58970,9688
1.59230,10349
1.59490,9713
1.59752,10410
1.60012,10371
1.60273,9462
1.60533,8417
1.60793,9674
1.61055,8988
1.61315,8870
1.61577,7906
1.61837,10255
1.62097,8249
1.62358,8362
1.62618,7564
1.62880,10640
1.63140,10075
1.63400,8638
1.63662,9336
1.63922,9210
1.64183,8810
1.64443,9612
1.64705,9743
1.64965,8606
1.65225,8426
1.65487,8817
1.65747,8503
1.66008,9406
1.66268,8726
1.66528,9562
1.66790,9177
1.67050,7833
1.67312,8363
1.67572,9164
1.67832,9512
1.68093,8525
1.68353,8939
1.68615,8062
1.68875,8307
1.69135,9662
1.69397,8803
1.69657,8472
1.69918,7131
1.70178,8204
1.70438,9379
1.70700,7372
1.70960,7502
1.71222,7313
1.71482,8619
1.71742,7931
1.72003,8072
1.72263,7609
1.72525,6257
1.72785,6505
1.73047,7671
1.73307,7922
1.73567,8015
1.73828,7006
1.74088,7287
1.74350,7275
1.74610,7009
1.74870,6138
1.75132,7860
1.75392,7083
1.75653,7400
1.75913,6190
1.76173,7824
1.76435,7635
1.76695,6038
1.76957,7611
1.77217,7059
1.77477,7017
1.77738,6624
1.77998,6558
1.78260,8630
1.78520,7508
1.78780,6504
1.79042,5885
1.79302,7687
1.79563,7446
1.79823,5660
1.80083,7344
1.80345,6041
1.80605,5896
1.80867,7779
1.81127,5134
1.81388,7551
1.81648,5006
1.81908,6383
1.82170,4933
1.82430,6735
1.82692,6591
1.82952,6827
1.83212,7653
1.83473,6691
1.83733,6417
1.83995,5650
1.84255,6515
1.84515,5236
1.84777,6402
1.85037,6362
1.85298,6960
1.85558,4688
1.85818,5953
1.86080,6772
1.86340,6029
1.86602,5682
1.86862,7304
1.87122,6425
1.87383,6283
1.87643,6851
1.87905,5008
1.88165,5962
1.88425,6198
1.88687,5104
1.88947,5398
1.89208,6372
1.89468,5626
1.89730,4778
1.89990,5501
1.90250,5300
1.90512,5637
1.90772,6621
1.91033,6371
1.91293,7110
1.91553,5907
1.91815,4879
1.92075,4897
1.92337,4361
1.92597,4826
1.92857,6256
1.93118,4979
1.93378,5083
1.93640,6420
1.93900,5847
1.94160,5289
1.94422,4233
1.94682,5874
1.94943,4700
1.95203,4884
1.95463,5766
1.95725,5246
1.95985,5072
1.96247,4910
1.96507,5427
1.96767,6075
1.97028,5625
1.97288,6334
1.97550,5421
1.97810,4974
1.98072,5244
1.98332,5476
1.98592,5006
1.98853,5269
1.99113,4557
1.99375,3713
1.99635,5252
1.99895,6459
2.00157,5943
2.00417,3825
2.00678,5263
2.00938,5563
2.01198,4367
2.01460,5769
2.01720,4654
2.01982,6334
2.02242,4757
2.02502,4499
2.02763,5041
2.03023,3756
2.03285,5071
2.03545,5125
2.03805,4988
2.04067,6615
2.04327,9273
2.04588,8004
2.04848,9181
2.05108,8290
2.05370,8515
2.05630,7756
2.05892,8086
2.06152,6803
2.06413,6190
2.06673,7409
2.06933,6608
2.07195,6021
2.07455,7814
2.07717,6350
2.07977,6847
2.08237,6105
2.08498,6518
2.08758,7038
2.09020,5098
2.09280,5603
2.09540,5939
2.09802,5724
2.10062,6059
2.10323,5887
2.10583,4782
2.10843,5576
2.11105,6941
2.11365,5980
2.11627,5399
2.11887,5209
2.12147,5448
2.12408,5620
2.12668,5107
2.12930,5204
2.13190,4514
2.13450,4672
2.13712,5933
2.13972,4859
2.14233,4341
2.14493,5806
2.14755,6299
2.15015,5207
2.15275,4841
2.15537,4800
2.15797,4933
2.16058,5428
2.16318,5139
2.16578,5913
2.16840,6096
2.17100,5235
2.17362,5159
2.17622,4853
2.17882,4865
2.18143,5342
2.18403,4463
2.18665,5176
2.18925,5864
2.19185,5235
2.19447,5443
2.19707,4588
2.19968,4891
2.20228,3810
2.20488,5126
2.20750,6097
2.21010,4602
2.21272,5482
2.21532,5164
2.21792,5326
2.22053,5819
2.22313,5714
2.22575,4024
2.22835,4476
2.23097,4684
2.23357,5463
2.23617,5509
2.23878,5257
2.24138,4537
2.24400,5073
2.24660,4441
2.24920,4767
2.25182,4550
2.25442,4435
2.25703,4981
2.25963,4333
2.26223,4213
2.26485,5426
2.26745,4987
2.27007,4632
2.27267,4936
2.27527,4513
2.27788,6551
2.28048,4826
2.28310,4592
2.28570,4009
2.28830,4188
2.29092,4661
2.29352,5010
2.29613,5307
2.29873,5592
2.30133,5689
2.30395,4189
2.30655,4595
2.30917,5196
2.31177,3970
2.31438,4632
2.31698,5327
2.31958,4849
2.32220,4614
2.32480,5656
2.32742,4905
2.33002,4680
2.33262,5622
2.33523,4157
2.33783,4124
2.34045,4666
2.34305,4458
2.34565,5259
2.34827,4196
2.35087,5180
2.35348,5453
2.35608,4196
2.35868,3994
2.36130,4428
2.36390,4795
2.36652,4354
2.36912,3791
2.37172,4476
2.37433,4555
2.37693,4232
2.37955,3899
2.38215,3613
2.38475,4099
2.38737,4253
2.38997,4398
2.39258,3919
2.39518,4259
2.39780,3889
2.40040,4902
2.40300,4824
2.40562,4319
2.40822,3385
2.41083,5531
2.41343,5207
2.41603,4764
2.41865,4567
2.42125,5216
2.42387,4579
2.42647,4624
2.42907,4168
2.43168,3269
2.43428,4509
2.43690,4190
2.43950,4023
2.44210,4195
2.44472,5185
2.44732,4786
2.44993,3390
2.45253,4711
2.45513,5047
2.45775,6635
2.46035,5376
2.46297,6182
2.46557,5907
2.46817,6121
2.47078,5418
2.47338,4632
2.47600,6176
2.47860,5607
2.48122,5114
2.48382,4645
2.48642,5545
2.48903,4548
2.49163,6652
2.49425,4948
2.49685,3842
2.49945,4135
2.50207,4834
2.50467,4539
2.50728,4157
2.50988,5754
2.51248,5119
2.51510,5577
2.51770,4434
2.52032,4461
2.52292,4822
2.52552,4713
2.52813,4329
2.53073,5412
2.53335,3920
2.53595,5857
2.53855,4571
2.54117,4580
2.54377,5850
2.54638,4238
2.54898,4965
2.55158,4633
2.55420,4656
2.55680,4671
2.55942,5237
2.56202,4491
2.56463,5182
2.56723,5247
2.56983,4581
2.57245,3095
2.57505,4286
2.57767,6321
2.58027,5246
2.58287,5168
2.58548,4849
2.58808,5216
2.59070,4718
2.59330,4039
2.59590,5707
2.59852,4031
2.60112,4608
2.60373,4775
2.60633,4077
2.60893,3902
2.61155,4618
2.61415,4289
2.61677,4700
2.61937,4795
2.62197,4815
2.62458,5214
2.62718,4819
2.62980,5744
2.63240,4560
2.63500,3525
2.63762,4131
2.64022,4590
2.64283,5037
2.64543,4096
2.64805,4239
2.65065,4689
2.65325,5151
2.65587,3956
2.65847,5175
2.66108,5010
2.66368,4381
2.66628,4577
2.66890,4303
2.67150,4102
2.67412,4110
2.67672,3735
2.67932,4512
2.68193,5370
2.68453,4535
2.68715,5021
2.68975,4889
2.69235,4358
2.69497,5223
2.69757,4003
2.70018,4759
2.70278,4143
2.70538,4872
2.70800,3378
2.71060,4324
2.71322,4768
2.71582,4748
2.71842,4684
2.72103,4676
2.72363,4018
2.72625,3512
2.72885,3411
2.73147,4049
2.73407,3745
2.73667,4854
2.73928,5370
2.74188,4409
2.74450,5103
2.74710,5287
2.74970,4783
2.75232,4221
2.75492,4017
2.75753,4907
2.76013,5485
2.76273,4043
2.76535,4652
2.76795,3910
2.77057,4110
2.77317,4290
2.77577,4769
2.77838,4589
2.78098,4015
2.78360,3497
2.78620,4462
2.78880,4918
2.79142,4527
2.79402,3505
2.79663,3731
2.79923,5543
2.80183,4176
2.80445,3730
2.80705,4997
2.80967,4393
2.81227,4258
2.81488,3744
2.81748,4703
2.82008,3714
2.82270,4257
2.82530,4384
2.82792,5509
2.83052,3696
2.83312,4585
2.83573,4455
2.83833,4182
2.84095,5036
2.84355,4315
2.84615,4156
2.84877,4763
2.85137,5467
2.85398,4033
2.85658,4795
2.85918,4474
2.86180,4419
2.86440,4525
2.86702,3999
2.86962,3904
2.87222,4202
2.87483,3550
2.87743,4754
2.88005,5082
2.88265,4067
2.88525,2821
2.88787,3889
2.89047,5100
2.89308,4249
2.89568,3960
2.89830,4567
2.90090,5253
2.90350,4423
2.90612,4491
2.90872,4205
2.91133,3732
2.91393,4051
2.91653,4787
2.91915,5808
2.92175,4622
2.92437,4729
2.92697,5032
2.92957,4587
2.93218,4386
2.93478,4666
2.93740,3305
2.94000,4329
2.94260,4788
2.94522,4766
2.94782,4712
2.95043,4237
2.95303,4380
2.95563,4123
2.95825,3952
2.96085,3984
2.96347,5011
2.96607,4115
2.96867,4365
2.97128,5819
2.97388,4279
2.97650,5219
2.97910,6561
2.98172,6397
2.98432,4597
2.98692,5072
2.98953,4869
2.99213,4271
2.99475,4076
2.99735,4654
2.99995,5129
3.00257,5388
3.00517,5364
3.00778,3995
3.01038,4909
3.01298,3826
3.01560,4135
3.01820,3988
3.02082,5359
3.02342,3723
3.02602,4745
3.02863,5202
3.03123,4307
3.03385,3934
3.03645,3915
3.03905,4940
3.04167,3966
3.04427,3860
3.04688,4122
3.04948,4536
3.05208,3513
3.05470,4693
3.05730,4032
3.05992,3995
3.06252,4861
3.06513,3899
3.06773,4312
3.07033,3789
3.07295,4587
3.07555,6532
3.07817,3815
3.08077,4022
3.08337,3944
3.08598,4388
3.08858,4248
3.09120,5313
3.09380,5314
3.09640,4040
3.09902,4922
3.10162,4590
3.10423,4009
3.10683,4108
3.10943,5412
3.11205,5533
3.11465,6442
3.11727,7697
3.11987,8977
3.12247,11674
3.12508,12619
3.12768,14798
3.13030,12478
3.13290,14070
3.13550,11719
3.13812,10732
3.14072,10127
3.14333,9883
3.14593,9070
3.14855,9375
3.15115,8316
3.15375,9079
3.15637,8100
3.15897,8996
3.16158,6893
3.16418,6758
3.16678,6189
3.16940,7518
3.17200,8477
3.17462,7294
3.17722,6791
3.17982,6595
3.18243,6448
3.18503,6551
3.18765,6450
3.19025,6441
3.19285,5106
3.19547,5468
3.19807,7249
3.20068,5848
3.20328,6654
3.20588,6679
3.20850,6062
3.21110,4899
3.21372,6390
3.21632,5722
3.21892,5495
3.22153,4411
3.22413,5188
3.22675,5247
3.22935,4851
3.23197,5437
3.23457,5765
3.23717,5578
3.23978,5584
3.24238,5579
3.24500,5166
3.24760,5450
3.25020,5088
3.25282,5563
3.25542,5407
3.25803,5075
3.26063,4911
3.26323,3812
3.26585,4774
3.26845,4591
3.27107,4153
3.27367,5307
3.27627,4207
3.27888,5282
3.28148,4177
3.28410,4564
3.28670,5687
3.28930,5118
3.29192,4718
3.29452,4407
3.29713,4857
3.29973,5367
3.30233,4352
3.30495,5532
3.30755,5832
3.31017,5173
3.31277,5586
3.31538,4520
3.31798,5474
3.32058,5362
3.32320,5855
3.32580,6257
3.32842,5102
3.33102,5189
3.33362,5179
3.33623,3847
3.33883,4650
3.34145,4353
3.34405,4352
3.34665,4460
3.34927,3631
3.35187,4039
3.35448,5647
3.35708,4996
3.35968,5363
3.36230,5441
3.36490,5185
3.36752,5318
3.37012,5360
3.37272,5540
3.37533,5635
3.37793,4161
3.38055,5380
3.38315,4014
3.38575,4880
3.38837,5250
3.39097,5822
3.39358,6117
3.39618,6933
3.39880,8363
3.40140,5610
3.40400,5691
3.40662,5301
3.40922,6778
3.41183,5410
3.41443,6759
3.41703,5039
3.41965,5012
3.42225,5010
3.42487,5837
3.42747,4378
3.43007,5019
3.43268,5568
3.43528,5241
3.43790,4781
3.44050,4369
3.44310,5456
3.44572,4737
3.44832,5751
3.45093,5689
3.45353,5589
3.45613,5652
3.45875,4492
3.46135,5051
3.46397,6409
3.46657,4753
3.46917,4712
3.47178,4439
3.47438,4539
3.47700,5010
3.47960,4631
3.48222,5281
3.48482,4198
3.48742,4930
3.49003,4242
3.49263,5768
3.49525,4910
3.49785,4486
3.50045,4378
3.50307,5225
3.50567,5194
3.50828,5280
3.51088,11122
3.51348,18567
3.51610,34486
3.51870,48327
3.52132,55822
3.52392,51898
3.52652,38008
3.52913,24485
3.53173,18213
3.53435,12792
3.53695,9837
3.53955,10015
3.54217,9045
3.54477,10880
3.54738,8864
3.54998,9294
3.55258,10035
3.55520,8643
3.55780,7499
3.56042,8646
3.56302,8294
3.56563,8114
3.56823,8132
3.57083,8342
3.57345,8271
3.57605,5530
3.57867,7920
3.58127,8057
3.58387,7771
3.58648,7907
3.58908,8294
3.59170,7171
3.59430,7936
3.59690,8581
3.59952,8652
3.60212,10488
3.60473,8079
3.60733,9834
3.60993,7948
3.61255,9516
3.61515,8688
3.61777,8265
3.62037,8764
3.62297,9808
3.62558,8590
3.62818,7892
3.63080,8888
3.63340,7935
3.63600,8409
3.63862,8266
3.64122,8565
3.64383,10110
3.64643,9126
3.64905,8721
3.65165,8412
3.65425,9431
3.65687,8647
3.65947,8344
3.66208,6691
3.66468,7762
3.66728,9706
3.66990,9582
3.67250,10011
3.67512,6998
3.67772,6693
3.68032,6980
3.68293,8018
3.68553,8271
3.68815,8741
3.69075,8481
3.69335,8959
3.69597,8433
3.69857,7626
3.70118,8309
3.70378,8189
3.70638,8949
3.70900,7896
3.71160,7092
3.71422,8754
3.71682,8020
3.71942,8444
3.72203,8693
3.72463,8035
3.72725,6220
3.72985,8700
3.73247,7272
3.73507,7428
3.73767,8172
3.74028,7204
3.74288,8455
3.74550,8985
3.74810,7967
3.75070,9098
3.75332,8348
3.75592,8433
3.75853,7652
3.76113,7964
3.76373,6997
3.76635,7678
3.76895,7742
3.77157,7974
3.77417,7551
3.77677,7724
3.77938,7820
3.78198,8268
3.78460,7720
3.78720,8836
3.78980,8230
3.79242,8511
3.79502,8610
3.79763,7410
3.80023,8172
3.80283,6518
3.80545,8260
3.80805,8139
3.81067,8297
3.81327,8542
3.81588,9154
3.81848,8481
3.82108,8225
3.82370,9066
3.82630,8291
3.82892,8126
3.83152,7860
3.83412,8313
3.83673,7595
3.83933,7608
3.84195,8080
3.84455,8756
3.84715,6748
3.84977,7722
3.85237,8656
3.85498,7986
3.85758,7473
3.86018,8390
3.86280,7623
3.86540,7522
3.86802,9035
3.87062,8233
3.87322,7123
3.87583,7683
3.87843,7922
3.88105,8213
3.88365,8951
3.88625,7251
3.88887,7515
3.89147,8503
3.89408,8569
3.89668,8358
3.89930,7801
3.90190,8272
3.90450,8613
3.90712,7299
3.90972,7049
3.91233,7967
3.91493,6956
3.91753,10050
3.92015,8099
3.92275,9265
3.92537,7902
3.92797,8543
3.93057,10064
3.93318,11445
3.93578,11963
3.93840,11846
3.94100,14096
3.94360,13629
3.94622,9685
3.94882,10086
3.95143,9723
3.95403,8854
3.95663,7722
3.95925,9594
3.96185,9407
3.96447,8829
3.96707,8872
3.96967,8343
3.97228,8804
3.97488,9297
3.97750,9554
3.98010,8200
3.98272,9152
3.98532,8515
3.98792,8692
3.99053,7692
3.99313,8998
3.99575,9040
3.99835,8444
4.00095,7372
4.00357,9528
4.00617,7012
4.00878,7316
4.01138,8324
4.01398,8287
4.01660,6896
4.01920,7882
4.02182,8889
4.02442,8335
4.02702,7609
4.02963,8152
4.03223,7844
4.03485,8721
4.03745,8407
4.04005,8436
4.04267,9336
4.04527,8212
4.04788,7249
4.05048,7881
4.05308,7638
4.05570,7749
4.05830,8335
4.06092,8681
4.06352,7564
4.06613,7352
4.06873,7651
4.07133,8276
4.07395,7929
4.07655,7151
4.07917,7849
4.08177,8577
4.08437,8280
4.08698,8780
4.08958,7186
4.09220,7103
4.09480,8170
4.09740,8720
4.10002,8239
4.10262,7864
4.10523,7227
4.10783,9031
4.11043,8044
4.11305,8020
4.11565,8007
4.11827,8123
4.12087,7452
4.12347,7818
4.12608,8238
4.12868,7414
4.13130,7944
4.13390,7346
4.13650,6692
4.13912,7299
4.14172,7618
4.14433,6379
4.14693,9352
4.14955,7207
4.15215,8370
4.15475,7708
4.15737,7154
4.15997,7512
4.16258,7930
4.16518,8880
4.16778,7852
4.17040,7150
4.17300,7351
4.17562,7704
4.17822,7755
4.18082,8526
4.18343,8349
4.18603,8613
4.18865,9234
4.19125,7464
4.19385,8460
4.19647,7966
4.19907,7538
4.20168,7837
4.20428,7990
4.20688,8077
4.20950,7776
4.21210,8353
4.21472,7437
4.21732,8031
4.21992,8193
4.22253,8504
4.22513,8087
4.22775,8508
4.23035,8001
4.23297,8480
4.23557,7170
4.23817,9544
4.24078,8123
4.24338,9191
4.24600,7353
4.24860,7275
4.25120,7337
4.25382,8026
4.25642,8336
4.25903,7846
4.26163,7710
4.26423,7733
4.26685,7885
4.26945,7146
4.27207,8525
4.27467,7905
4.27727,7728
4.27988,8383
4.28248,8300
4.28510,8439
4.28770,7354
4.29030,7046
4.29292,8612
4.29552,7493
4.29813,8699
4.30073,6112
4.30333,7864
4.30595,7622
4.30855,6981
4.31117,8018
4.31377,8290
4.31638,7416
4.31898,7170
4.32158,6586
4.32420,7575
4.32680,6708
4.32942,8525
4.33202,6685
4.33462,7556
4.33723,7193
4.33983,7233
4.34245,7804
4.34505,8263
4.34765,7121
4.35027,6828
4.35287,6948
4.35548,7306
4.35808,7671
4.36068,8263
4.36330,8512
4.36590,8952
4.36852,7921
4.37112,8237
4.37372,6968
4.37633,7505
4.37893,8181
4.38155,7854
4.38415,6844
4.38675,7000
4.38937,6201
4.39197,8201
4.39458,7727
4.39718,7446
4.39980,8250
4.40240,8181
4.40500,7927
4.40762,7768
4.41022,9489
4.41283,8348
4.41543,7302
4.41803,7874
4.42065,6948
4.42325,7902
4.42587,8399
4.42847,7981
4.43107,8259
4.43368,8020
4.43628,9362
4.43890,8856
4.44150,7339
4.44410,7900
4.44672,7929
4.44932,8140
4.45193,8131
4.45453,9115
4.45713,9085
4.45975,8913
4.46235,8408
4.46497,8019
4.46757,8538
4.47017,6777
4.47278,7272
4.47538,7181
4.47800,7882
4.48060,6436
4.48322,8016
4.48582,7008
4.48842,7226
4.49103,8130
4.49363,9205
4.49625,8095
4.49885,8908
4.50145,8958
4.50407,7678
4.50667,8749
4.50928,7671
4.51188,6937
4.51448,7525
4.51710,8255
4.51970,9052
4.52232,8480
4.52492,8092
4.52752,7821
4.53013,9028
4.53273,7990
4.53535,8355
4.53795,7261
4.54055,7587
4.54317,7992
4.54577,7627
4.54838,8044
4.55098,7982
4.55358,9990
4.55620,7966
4.55880,8079
4.56142,7629
4.56402,7514
4.56663,7866
4.56923,7287
4.57183,7183
4.57445,7961
4.57705,8150
4.57967,8428
4.58227,6632
4.58487,7985
4.58748,7858
4.59008,8238
4.59270,7896
4.59530,7434
4.59790,7787
4.60052,9337
4.60312,7290
4.60573,7813
4.60833,8475
4.61093,7302
4.61355,7104
4.61615,9218
4.61877,8854
4.62137,9239
4.62397,7654
4.62658,9558
4.62918,8944
4.63180,6554
4.63440,6851
4.63700,7765
4.63962,6620
4.64222,7172
4.64483,7323
4.64743,9622
4.65005,8202
4.65265,7138
4.65525,8524
4.65787,7791
4.66047,7884
4.66308,7819
4.66568,8332
4.66828,7959
4.67090,8076
4.67350,8745
4.67612,8287
4.67872,8223
4.68132,7982
4.68393,8371
4.68653,8568
4.68915,6704
4.69175,8002
4.69435,9390
4.69697,7704
4.69957,8141
4.70218,8335
4.70478,7694
4.70738,9848
4.71000,7574
4.71260,8888
4.71522,7914
4.71782,9200
4.72042,8338
4.72303,7211
4.72563,7827
4.72825,7577
4.73085,7889
4.73347,8883
4.73607,8470
4.73867,6827
4.74128,8073
4.74388,8478
4.74650,6959
4.74910,7329
4.75170,8034
4.75432,8482
4.75692,8096
4.75953,8023
4.76213,7699
4.76473,8344
4.76735,7981
4.76995,9308
4.77257,7622
4.77517,8830
4.77777,8413
4.78038,8429
4.78298,8445
4.78560,7510
4.78820,9401
4.79080,8877
4.79342,8603
4.79602,8450
4.79863,8814
4.80123,8682
4.80383,8770
4.80645,9102
4.80905,8362
4.81167,7790
4.81427,9317
4.81688,9187
4.81948,9025
4.82208,8206
4.82470,8449
4.82730,7405
4.82992,8705
4.83252,8308
4.83512,7400
4.83773,8090
4.84033,7962
4.84295,7399
4.84555,8907
4.84815,9618
4.85077,8236
4.85337,6746
4.85598,8343
4.85858,8215
4.86118,8713
4.86380,8034
4.86640,7775
4.86902,8842
4.87162,8028
4.87422,9611
4.87683,8323
4.87943,7910
4.88205,7977
4.88465,8063
4.88725,8078
4.88987,7739
4.89247,8262
4.89508,6607
4.89768,7752
4.90030,8627
4.90290,7396
4.90550,8175
4.90812,7375
4.91072,8070
4.91333,9886
4.91593,8134
4.91853,8202
4.92115,9633
4.92375,8989
4.92637,8216
4.92897,8734
4.93157,7196
4.93418,8385
4.93678,8421
4.93940,8386
4.94200,8654
4.94460,7875
4.94722,7505
4.94982,6845
4.95243,7740
4.95503,7290
4.95763,8105
4.96025,8474
4.96285,8576
4.96547,7937
4.96807,8061
4.97067,8835
4.97328,8927
4.97588,8292
4.97850,8916
4.98110,9143
4.98372,7990
4.98632,8241
4.98892,8288
4.99153,8222
4.99413,8720
4.99675,7842
4.99935,8104
5.00195,7483
5.00457,8416
5.00717,7382
5.00978,9659
5.01238,9196
5.01498,7618
5.01760,9679
5.02020,7842
5.02282,7417
5.02542,7827
5.02802,9174
5.03063,8763
5.03323,8327
5.03585,8524
5.03845,8865
5.04105,7482
5.04367,7975
5.04627,8524
5.04888,7928
5.05148,9275
5.05408,7552
5.05670,7192
5.05930,7782
5.06192,7397
5.06452,9387
5.06713,7869
5.06973,8349
5.07233,6801
5.07495,7426
5.07755,7411
5.08017,8603
5.08277,8446
5.08537,7705
5.08798,8772
5.09058,7187
5.09320,8831
5.09580,8066
5.09840,9026
5.10102,9016
5.10362,8536
5.10623,8820
5.10883,9581
5.11143,7973
5.11405,8531
5.11665,8905
5.11927,7845
5.12187,8098
5.12447,7183
5.12708,7388
5.12968,7973
5.13230,8926
5.13490,8160
5.13750,8336
5.14012,6766
5.14272,8205
5.14533,9067
5.14793,8854
5.15055,8453
5.15315,8169
5.15575,8892
5.15837,8363
5.16097,8859
5.16358,8713
5.16618,8047
5.16878,7327
5.17140,7783
5.17400,9630
5.17662,8573
5.17922,8387
5.18182,9810
5.18443,7905
5.18703,8160
5.18965,9185
5.19225,8440
5.19485,8118
5.19747,8935
5.20007,7930
5.20268,8931
5.20528,8669
5.20788,7989
5.21050,8669
5.21310,8986
5.21572,9799
5.21832,8456
5.22092,9424
5.22353,8609
5.22613,8397
5.22875,9220
5.23135,8646
5.23397,8541
5.23657,9554
5.23917,8128
5.24178,9324
5.24438,8662
5.24700,7209
5.24960,8919
5.25220,8898
5.25482,9099
5.25742,8655
5.26003,8092
5.26263,7527
5.26523,8181
5.26785,7254
5.27045,9034
5.27307,8144
5.27567,10156
5.27827,9098
5.28088,6809
5.28348,7540
5.28610,8467
5.28870,8146
5.29130,8392
5.29392,9878
5.29652,8685
5.29913,8713
5.30173,8751
5.30435,8902
5.30695,7099
5.30955,7886
5.31217,7103
5.31477,8927
5.31738,7398
5.31998,7780
5.32258,8709
5.32520,8643
5.32780,9238
5.33042,8772
5.33302,8523
5.33562,9698
5.33823,7347
5.34083,8447
5.34345,9650
5.34605,6840
5.34865,8620
5.35127,9381
5.35387,8572
5.35648,9227
5.35908,8009
5.36168,9273
5.36430,8810
5.36690,8245
5.36952,9209
5.37212,9512
5.37472,7595
5.37733,8392
5.37993,9987
5.38255,8499
5.38515,8559
5.38777,7596
5.39037,7994
5.39297,8447
5.39558,9210
5.39818,9757
5.40080,8920
5.40340,8343
5.40600,8601
5.40862,8311
5.41122,8138
5.41383,7400
5.41643,9005
5.41903,9286
5.42165,9391
5.42425,9647
5.42687,8400
5.42947,8644
5.43207,8734
5.43468,10128
5.43728,8624
5.43990,8125
5.44250,9290
5.44510,9760
5.44772,8594
5.45032,9097
5.45293,11571
5.45553,12084
5.45813,13723
5.46075,13869
5.46335,12147
5.46597,11515
5.46857,10953
5.47118,9530
5.47378,12510
5.47638,10208
5.47900,9779
5.48160,9870
5.48422,8239
5.48682,6886
5.48942,9126
5.49203,9283
5.49463,8754
5.49725,9333
5.49985,7221
5.50245,8720
5.50507,10063
5.50767,8529
5.51028,9646
5.51288,9216
5.51548,7512
5.51810,9593
5.52070,8807
5.52332,7879
5.52592,7277
5.52852,8333
5.53113,7794
5.53373,9274
5.53635,8286
5.53895,9213
5.54155,8580
5.54417,9413
5.54677,9371
5.54938,8914
5.55198,7787
5.55460,10075
5.55720,8565
5.55980,8931
5.56242,9087
5.56502,9196
5.56763,9837
5.57023,8983
5.57283,10062
5.57545,8651
5.57805,8459
5.58067,10328
5.58327,10123
5.58587,9692
5.58848,10008
5.59108,8706
5.59370,9542
5.59630,8918
5.59890,8587
5.60152,8503
5.60412,9406
5.60673,8967
5.60933,8148
5.61193,8409
5.61455,9667
5.61715,9703
5.61977,9509
5.62237,8704
5.62497,9510
5.62758,9780
5.63018,10548
5.63280,8805
5.63540,8485
5.63802,7573
5.64062,9901
5.64322,9402
5.64583,9569
5.64843,10135
5.65105,8003
5.65365,9014
5.65625,7684
5.65887,9337
5.66147,9178
5.66408,9723
5.66668,10003
5.66928,9381
5.67190,8670
5.67450,9744
5.67712,8962
5.67972,9158
5.68232,8996
5.68493,8775
5.68753,8276
5.69015,8704
5.69275,8989
5.69535,8318
5.69797,9487
5.70057,9835
5.70318,11316
5.70578,11174
5.70838,10937
5.71100,11888
5.71360,11273
5.71622,8703
5.71882,9261
5.72143,9659
5.72403,8298
5.72663,9686
5.72925,10103
5.73185,9183
5.73447,8963
5.73707,8585
5.73967,9810
5.74228,8716
5.74488,9521
5.74750,8072
5.75010,8515
5.75270,9294
5.75532,8644
5.75792,9528
5.76053,9778
5.76313,8262
5.76573,8266
5.76835,8034
5.77095,9012
5.77357,9265
5.77617,8532
5.77877,8409
5.78138,10768
5.78398,9083
5.78660,9695
5.78920,7328
5.79180,10855
5.79442,10906
5.79702,9120
5.79963,8979
5.80223,8677
5.80485,11393
5.80745,9691
5.81005,10032
5.81267,10061
5.81527,12759
5.81788,15964
5.82048,18224
5.82308,21183
5.82570,20518
5.82830,14465
5.83092,13827
5.83352,11430
5.83612,11301
5.83873,9992
5.84133,11985
5.84395,12116
5.84655,11361
5.84915,11665
5.85177,10538
5.85437,11606
5.85698,9123
5.85958,9828
5.86218,10857
5.86480,9550
5.86740,8407
5.87002,9688
5.87262,9026
5.87522,10341
5.87783,9717
5.88043,9819
5.88305,9878
5.88565,11019
5.88827,8710
5.89087,10829
5.89347,10296
5.89608,9042
5.89868,10987
5.90130,8776
5.90390,9315
5.90650,8690
5.90912,9414
5.91172,9959
5.91433,9591
5.91693,9975
5.91953,9688
5.92215,9955
5.92475,9297
5.92737,10796
5.92997,11788
5.93257,11789
5.93518,13321
5.93778,12565
5.94040,13904
5.94300,13379
5.94560,13425
5.94822,12112
5.95082,12499
5.95343,11857
5.95603,13386
5.95863,10528
5.96125,12039
5.96385,11486
5.96647,11605
5.96907,11031
5.97168,10830
5.97428,9131
5.97688,11748
5.97950,11879
5.98210,10603
5.98472,11358
5.98732,11040
5.98992,12924
5.99253,13204
5.99513,10812
5.99775,10268
6.00035,10417
6.00295,10588
6.00557,10710
6.00817,10320
6.01078,12424
6.01338,11355
6.01598,11580
6.01860,11588
6.02120,9392
6.02382,11757
6.02642,11164
6.02902,9742
6.03163,10163
6.03423,11573
6.03685,10448
6.03945,12117
6.04205,12957
6.04467,12299
6.04727,15804
6.04988,17763
6.05248,21363
6.05510,20134
6.05770,19978
6.06030,19885
6.06292,18254
6.06552,16593
6.06813,16378
6.07073,15232
6.07333,17217
6.07595,16655
6.07855,13562
6.08117,13871
6.08377,14483
6.08637,14288
6.08898,10856
6.09158,11054
6.09420,12557
6.09680,12080
6.09940,12268
6.10202,11223
6.10462,13967
6.10723,12338
6.10983,11041
6.11243,12440
6.11505,12910
6.11765,11172
6.12027,11680
6.12287,11735
6.12547,11613
6.12808,12384
6.13068,12109
6.13330,14728
6.13590,12844
6.13852,11271
6.14112,10367
6.14372,11654
6.14633,12153
6.14893,11646
6.15155,13660
6.15415,11253
6.15675,11036
6.15937,10370
6.16197,12746
6.16458,10463
6.16718,11562
6.16978,15422
6.17240,15685
6.17500,20392
6.17762,22981
6.18022,21803
6.18282,17828
6.18543,15121
6.18803,12654
6.19065,11672
6.19325,11293
6.19585,10974
6.19847,12126
6.20107,11095
6.20368,9863
6.20628,12161
6.20888,9953
6.21150,9570
6.21410,11470
6.21672,11371
6.21932,11929
6.22193,9877
6.22453,10112
6.22713,10481
6.22975,11977
6.23235,11123
6.23497,10248
6.23757,12421
6.24017,9448
6.24278,11703
6.24538,10632
6.24800,11228
6.25060,10667
6.25320,9863
6.25582,11924
6.25842,11158
6.26103,11380
6.26363,9981
6.26623,10820
6.26885,9786
6.27145,9009
6.27407,11192
6.27667,11999
6.27927,10612
6.28188,11803
6.28448,12146
6.28710,10769
6.28970,9721
6.29230,11075
6.29492,11205
6.29752,10151
6.30013,11627
6.30273,10528
6.30535,11758
6.30795,9407
6.31055,10742
6.31317,10431
6.31577,10435
6.31838,10346
6.32098,11733
6.32358,11271
6.32620,10790
6.32880,10259
6.33142,10631
6.33402,10658
6.33662,11028
6.33923,10024
6.34183,10857
6.34445,10942
6.34705,11886
6.34965,12260
6.35227,13188
6.35487,11072
6.35748,13594
6.36008,9598
6.36268,10177
6.36530,11433
6.36790,11278
6.37052,10964
6.37312,10406
6.37572,11866
6.37833,11586
6.38093,9917
6.38355,11046
6.38615,10140
6.38877,10502
6.39137,10722
6.39397,9596
6.39658,11902
6.39918,10327
6.40180,11139
6.40440,12444
6.40700,12109
6.40962,12494
6.41222,12705
6.41483,14042
6.41743,10798
6.42003,10955
6.42265,10704
6.42525,10166
6.42787,10048
6.43047,11513
6.43307,9880
6.43568,10878
6.43828,11226
6.44090,10558
6.44350,9549
6.44610,11571
6.44872,11335
6.45132,9326
6.45393,9429
6.45653,12124
6.45913,10717
6.46175,11736
6.46435,11080
6.46697,11143
6.46957,10971
6.47218,11107
6.47478,10982
6.47738,12736
6.48000,13258
6.48260,10814
6.48522,11344
6.48782,13434
6.49042,10974
6.49303,14202
6.49563,16933
6.49825,27419
6.50085,44661
6.50345,62596
6.50607,74719
6.50867,68159
6.51128,53480
6.51388,34074
6.51648,26851
6.51910,20507
6.52170,17825
6.52432,16520
6.52692,14934
6.52952,16812
6.53213,14452
6.53473,14620
6.53735,13026
6.53995,13663
6.54255,13572
6.54517,12741
6.54777,13333
6.55038,12378
6.55298,12557
6.55560,13557
6.55820,14505
6.56080,10541
6.56342,13826
6.56602,12171
6.56863,12484
6.57123,12420
6.57383,13047
6.57645,12747
6.57905,10853
6.58167,12515
6.58427,12056
6.58687,16198
6.58948,41513
6.59208,139616
6.59470,510498
6.59730,1758522
6.59990,4855295
6.60252,9731763
6.60512,1.571379E+07
6.60773,2.172993E+07
6.61033,2.700149E+07
6.61293,3.238822E+07
6.61555,3.578187E+07
6.61815,3.719783E+07
6.62077,3.176583E+07
6.62337,1.501437E+07
6.62597,3588999
6.62858,907694
6.63118,387136
6.63380,253329
6.63640,197931
6.63902,155928
6.64162,133393
6.64422,114996
6.64683,102284
6.64943,94227
6.65205,84209
6.65465,76312
6.65725,71000
6.65987,68829
6.66247,61453
6.66508,57435
6.66768,55096
6.67028,50778
6.67290,47898
6.67550,48491
6.67812,44915
6.68072,42237
6.68332,42986
6.68593,42680
6.68853,38210
6.69115,37527
6.69375,37600
6.69635,34629
6.69897,35476
6.70157,35580
6.70418,31420
6.70678,33206
6.70938,32110
6.71200,31438
6.71460,29957
6.71722,30511
6.71982,27996
6.72243,29650
6.72503,28962
6.72763,28981
6.73025,27854
6.73285,29359
6.73547,24697
6.73807,26757
6.74067,25757
6.74328,26054
6.74588,24941
6.74850,27086
6.75110,24621
6.75370,25469
6.75632,23272
6.75892,24947
6.76153,24805
6.76413,24343
6.76673,26429
6.76935,26394
6.77195,27570
6.77457,26095
6.77717,24301
6.77977,20939
6.78238,21284
6.78498,21226
6.78760,21087
6.79020,21889
6.79280,20783
6.79542,22115
6.79802,20195
6.80063,19206
6.80323,20694
6.80585,19408
6.80845,20045
6.81105,19979
6.81367,20794
6.81627,21084
6.81888,20321
6.82148,17730
6.82408,20311
6.82670,19258
6.82930,19981
6.83192,19016
6.83452,19346
6.83712,17527
6.83973,18221
6.84233,18633
6.84495,19146
6.84755,17872
6.85015,18266
6.85277,18049
6.85537,20733
6.85798,21550
6.86058,23435
6.86318,31128
6.86580,32653
6.86840,36312
6.87102,34358
6.87362,38049
6.87622,42057
6.87883,50455
6.88143,56977
6.88405,57998
6.88665,48052
6.88927,39553
6.89187,32974
6.89447,26660
6.89708,25392
6.89968,22515
6.90230,21605
6.90490,22871
6.90750,21296
6.91012,20195
6.91272,21458
6.91533,21211
6.91793,20479
6.92053,19347
6.92315,20073
6.92575,18079
6.92837,19691
6.93097,21813
6.93357,24948
6.93618,29268
6.93878,31252
6.94140,28613
6.94400,25082
6.94660,22194
6.94922,20403
6.95182,20366
6.95443,18273
6.95703,19553
6.95963,20375
6.96225,19662
6.96485,19458
6.96747,20429
6.97007,18195
6.97268,19778
6.97528,18619
6.97788,17471
6.98050,19468
6.98310,17626
6.98572,18749
6.98832,16528
6.99092,18618
6.99353,17885
6.99613,17306
6.99875,17879
7.00135,19287
7.00395,19676
7.00657,18104
7.00917,21175
7.01178,17680
7.01438,16525
7.01698,18013
7.01960,17269
7.02220,16426
7.02482,17611
7.02742,16657
7.03002,17594
7.03263,16311
7.03523,17645
7.03785,17430
7.04045,17361
7.04305,16684
7.04567,17464
7.04827,19125
7.05088,18368
7.05348,17329
7.05610,17650
7.05870,18558
7.06130,16805
7.06392,17416
7.06652,19241
7.06913,17485
7.07173,17085
7.07433,16872
7.07695,16122
7.07955,19122
7.08217,16312
7.08477,17163
7.08737,16840
7.08998,15641
7.09258,16032
7.09520,16198
7.09780,14756
7.10040,17711
7.10302,16103
7.10562,17454
7.10823,16658
7.11083,17645
7.11343,16290
7.11605,14439
7.11865,16480
7.12127,17391
7.12387,15699
7.12647,15729
7.12908,16778
7.13168,16893
7.13430,17455
7.13690,16968
7.13952,16257
7.14212,18414
7.14472,16556
7.14733,16204
7.14993,17873
7.15255,17296
7.15515,17423
7.15775,15969
7.16037,15553
7.16297,15211
7.16558,16258
7.16818,15685
7.17078,16571
7.17340,16651
7.17600,14860
7.17862,15746
7.18122,18481
7.18382,19053
7.18643,16400
7.18903,16021
7.19165,16973
7.19425,17113
7.19685,17953
7.19947,17132
7.20207,17323
7.20468,18254
7.20728,17030
7.20988,18966
7.21250,18232
7.21510,20092
7.21772,19866
7.22032,18277
7.22293,16704
7.22553,17751
7.22813,18235
7.23075,18472
7.23335,17449
7.23597,20160
7.23857,16747
7.24117,18352
7.24378,19150
7.24638,20309
7.24900,17739
7.25160,15948
7.25420,18789
7.25682,17076
7.25942,16255
7.26203,16727
7.26463,17460
7.26723,15720
7.26985,17860
7.27245,16868
7.27507,15297
7.27767,17180
7.28027,18173
7.28288,15766
7.28548,16389
7.28810,17734
7.29070,17600
7.29330,18866
7.29592,16912
7.29852,17196
7.30113,17143
7.30373,16514
7.30635,16493
7.30895,16655
7.31155,17434
7.31417,18676
7.31677,16846
7.31938,18132
7.32198,18801
7.32458,15520
7.32720,19402
7.32980,17269
7.33242,18078
7.33502,17278
7.33762,15776
7.34023,18561
7.34283,16753
7.34545,16393
7.34805,15952
7.35065,17791
7.35327,16593
7.35587,16776
7.35848,18143
7.36108,15894
7.36368,17464
7.36630,18474
7.36890,15901
7.37152,15485
7.37412,18321
7.37672,16672
7.37933,18699
7.38193,16467
7.38455,16126
7.38715,17389
7.38977,17169
7.39237,17164
7.39497,18899
7.39758,17916
7.40018,17663
7.40280,17430
7.40540,17327
7.40800,16533
7.41062,16989
7.41322,18520
7.41583,16825
7.41843,17790
7.42103,17727
7.42365,18189
7.42625,18518
7.42887,18491
7.43147,18946
7.43407,17857
7.43668,18487
7.43928,16402
7.44190,16301
7.44450,17501
7.44710,17615
7.44972,16954
7.45232,19739
7.45493,19520
7.45753,17949
7.46013,18081
7.46275,18428
7.46535,16998
7.46797,18107
7.47057,17626
7.47318,18179
7.47578,16785
7.47838,17751
7.48100,18921
7.48360,19509
7.48622,18675
7.48882,19347
7.49142,19249
7.49403,18848
7.49663,20537
7.49925,19011
7.50185,17604
7.50445,17669
7.50707,18448
7.50967,19717
7.51228,18030
7.51488,19619
7.51748,20911
7.52010,21681
7.52270,25534
7.52532,32042
7.52792,31879
7.53052,31270
7.53313,26990
7.53573,24605
7.53835,20116
7.54095,23178
7.54355,20809
7.54617,18965
7.54877,18987
7.55138,21213
7.55398,21156
7.55660,23412
7.55920,28685
7.56180,27288
7.56442,26544
7.56702,24954
7.56963,25924
7.57223,23109
7.57483,23554
7.57745,22527
7.58005,24682
7.58267,23836
7.58527,23935
7.58787,24869
7.59048,24466
7.59308,22254
7.59570,20306
7.59830,21889
7.60090,18273
7.60352,20537
7.60612,19433
7.60873,21429
7.61133,21423
7.61393,19605
7.61655,19633
7.61915,19860
7.62177,19932
7.62437,20492
7.62697,19392
7.62958,20797
7.63218,19102
7.63480,22169
7.63740,21060
7.64002,19055
7.64262,22266
7.64522,21066
7.64783,21085
7.65043,19665
7.65305,21501
7.65565,21557
7.65825,20870
7.66087,19724
7.66347,20390
7.66608,21492
7.66868,22426
7.67128,22385
7.67390,21980
7.67650,24466
7.67912,24065
7.68172,24502
7.68432,26008
7.68693,26397
7.68953,22311
7.69215,21087
7.69475,22334
7.69735,22689
7.69997,20369
7.70257,20928
7.70518,19839
7.70778,22266
7.71038,23704
7.71300,21898
7.71560,20687
7.71822,21326
7.72082,23023
7.72343,21996
7.72603,21883
7.72863,21555
7.73125,20265
7.73385,22521
7.73647,21288
7.73907,20572
7.74167,22765
7.74428,22570
7.74688,20535
7.74950,20190
7.75210,20403
7.75470,22805
7.75732,21824
7.75992,21032
7.76253,19608
7.76513,22359
7.76773,22007
7.77035,22112
7.77295,19730
7.77557,22206
7.77817,22721
7.78077,20970
7.78338,20910
7.78598,22060
7.78860,21820
7.79120,22951
7.79380,20888
7.79642,22915
7.79902,21889
7.80163,23145
7.80423,21766
7.80685,23979
7.80945,21972
7.81205,21717
7.81467,21458
7.81727,22467
7.81988,24008
7.82248,23315
7.82508,27467
7.82770,26005
7.83030,27630
7.83292,26626
7.83552,26522
7.83812,24622
7.84073,25439
7.84333,21157
7.84595,20765
7.84855,23808
7.85115,21187
7.85377,23179
7.85637,24061
7.85898,22616
7.86158,23259
7.86418,25557
7.86680,21704
7.86940,23262
7.87202,23507
7.87462,23650
7.87722,22527
7.87983,23417
7.88243,23877
7.88505,20784
7.88765,22073
7.89027,25780
7.89287,22320
7.89547,23485
7.89808,23350
7.90068,25681
7.90330,26000
7.90590,26621
7.90850,25442
7.91112,26000
7.91372,25881
7.91633,24321
7.91893,25754
7.92153,23553
7.92415,26264
7.92675,26510
7.92937,24759
7.93197,24589
7.93457,24635
7.93718,25395
7.93978,22524
7.94240,27036
7.94500,24542
7.94760,25144
7.95022,24003
7.95282,23932
7.95543,23624
7.95803,23222
7.96063,23846
7.96325,25998
7.96585,26232
7.96847,25016
7.97107,25851
7.97368,25226
7.97628,23775
7.97888,25609
7.98150,23853
7.98410,24427
7.98672,24174
7.98932,26658
7.99192,25418
7.99453,25633
7.99713,24681
7.99975,24880
8.00235,27192
8.00495,25949
8.00757,24126
8.01017,26040
8.01278,25209
8.01538,25495
8.01798,27564
8.02060,26855
8.02320,23394
8.02582,26113
8.02842,28399
8.03102,26764
8.03363,25766
8.03623,26081
8.03885,25671
8.04145,26291
8.04405,27796
8.04667,28959
8.04927,27500
8.05188,28815
8.05448,28413
8.05710,50573
8.05970,118646
8.06230,398650
8.06492,1324748
8.06752,3859104
8.07013,8253996
8.07273,1.359714E+07
8.07533,1.768097E+07
8.07795,1.829797E+07
8.08055,1.496823E+07
8.08317,9177415
8.08577,4609969
8.08837,2434552
8.09098,1521626
8.09358,1089125
8.09620,833475
8.09880,675811
8.10140,541449
8.10402,452176
8.10662,403254
8.10923,352227
8.11183,299061
8.11443,276523
8.11705,246387
8.11965,219305
8.12227,206420
8.12487,193656
8.12747,172835
8.13008,167051
8.13268,152656
8.13530,145038
8.13790,129778
8.14052,119560
8.14312,118289
8.14572,109710
8.14833,109457
8.15093,101787
8.15355,95029
8.15615,89796
8.15875,85156
8.16137,83169
8.16397,84175
8.16658,81007
8.16918,78561
8.17178,72729
8.17440,72592
8.17700,68673
8.17962,69948
8.18222,67838
8.18482,65070
8.18743,62611
8.19003,63667
8.19265,60926
8.19525,60659
8.19785,56580
8.20047,55971
8.20307,57094
8.20568,57664
8.20828,58445
8.21088,58302
8.21350,54853
8.21610,54902
8.21872,52292
8.22132,53839
8.22393,46578
8.22653,48258
8.22913,47184
8.23175,47244
8.23435,47675
8.23697,46553
8.23957,45763
8.24217,47595
8.24478,46854
8.24738,46948
8.25000,46520
8.25260,47416
8.25520,44037
8.25782,43852
8.26042,41444
8.26303,41730
8.26563,43851
8.26823,42846
8.27085,40530
8.27345,43495
8.27607,42135
8.27867,39792
8.28127,43261
8.28388,42756
8.28648,41182
8.28910,39945
8.29170,43193
8.29430,41973
8.29692,41216
8.29952,43190
8.30213,43427
8.30473,43880
8.30735,43907
8.30995,42676
8.31255,42270
8.31517,44695
8.31777,40517
8.32038,39806
8.32298,43460
8.32558,44623
8.32820,40106
8.33080,43315
8.33342,41293
8.33602,42817
8.33862,38245
8.34123,43722
8.34383,42063
8.34645,41510
8.34905,42626
8.35165,43106
8.35427,41632
8.35687,40546
8.35948,41054
8.36208,39685
8.36468,40388
8.36730,43943
8.36990,42088
8.37252,40859
8.37512,42799
8.37772,44238
8.38033,42116
8.38293,42771
8.38555,41832
8.38815,43183
8.39077,43699
8.39337,40027
8.39597,40099
8.39858,40924
8.40118,41469
8.40380,42184
8.40640,44061
8.40900,40890
8.41162,44126
8.41422,44270
8.41683,41633
8.41943,41468
8.42203,44041
8.42465,43994
8.42725,44344
8.42987,46315
8.43247,43814
8.43507,41557
8.43768,40128
8.44028,44834
8.44290,45806
8.44550,42312
8.44810,46232
8.45072,44909
8.45332,44017
8.45593,44407
8.45853,46306
8.46113,44075
8.46375,47684
8.46635,47408
8.46897,48187
8.47157,47255
8.47418,50689
8.47678,51539
8.47938,55274
8.48200,53935
8.48460,52926
8.48722,49903
8.48982,49183
8.49242,46769
8.49503,48199
8.49763,47834
8.50025,52612
8.50285,49358
8.50545,54391
8.50807,58382
8.51067,59111
8.51328,61028
8.51588,58245
8.51848,55607
8.52110,51663
8.52370,53962
8.52632,53373
8.52892,53283
8.53152,52241
8.53413,49028
8.53673,52143
8.53935,54192
8.54195,51416
8.54455,56562
8.54717,55216
8.54977,53028
8.55238,51523
8.55498,54924
8.55760,53081
8.56020,54867
8.56280,53062
8.56542,54831
8.56802,53450
8.57063,54927
8.57323,55033
8.57583,55284
8.57845,54381
8.58105,59543
8.58367,55003
8.58627,55478
8.58887,58564
8.59148,55911
8.59408,57054
8.59670,62868
8.59930,57952
8.60190,58755
8.60452,55838
8.60712,61363
8.60973,59198
8.61233,59066
8.61493,61388
8.61755,62519
8.62015,59149
8.62277,60613
8.62537,59411
8.62797,59942
8.63058,59352
8.63318,60668
8.63580,63942
8.63840,59086
8.64102,63500
8.64362,64415
8.64622,62390
8.64883,63961
8.65143,64042
8.65405,62832
8.65665,66079
8.65925,62155
8.66187,66981
8.66447,64198
8.66708,61567
8.66968,62511
8.67228,61833
8.67490,62879
8.67750,66025
8.68012,66054
8.68272,69581
8.68532,67137
8.68793,69186
8.69053,69911
8.69315,68871
8.69575,73446
8.69835,69291
8.70097,71646
8.70357,75165
8.70618,74712
8.70878,74487
8.71138,77687
8.71400,83291
8.71660,81771
8.71922,79604
8.72182,81184
8.72443,83792
8.72703,79035
8.72963,78146
8.73225,76560
8.73485,79023
8.73747,77183
8.74007,80415
8.74267,74098
8.74528,75785
8.74788,75819
8.75050,75808
8.75310,78969
8.75570,74524
8.75832,75018
8.76092,78640
8.76353,78448
8.76613,78580
8.76873,76881
8.77135,80541
8.77395,78659
8.77657,79337
8.77917,79509
8.78177,81195
8.78438,79601
8.78698,83145
8.78960,82940
8.79220,78364
8.79480,81079
8.79742,82088
8.80002,80242
8.80263,83966
8.80523,81398
8.80785,81930
8.81045,81153
8.81305,81622
8.81567,80849
8.81827,85468
8.82088,83081
8.82348,81992
8.82608,85119
8.82870,82574
8.83130,84839
8.83392,86688
8.83652,86127
8.83912,84113
8.84173,86047
8.84433,86642
8.84695,89962
8.84955,84855
8.85215,87829
8.85477,86835
8.85737,85026
8.85998,88331
8.86258,86871
8.86518,89633
8.86780,87202
8.87040,87127
8.87302,84877
8.87562,89932
8.87822,94991
8.88083,88274
8.88343,90729
8.88605,93164
8.88865,89808
8.89127,87228
8.89387,85368
8.89647,86265
8.89908,93205
8.90168,91400
8.90430,90581
8.90690,91100
8.90950,90546
8.91212,89468
8.91472,88914
8.91733,89723
8.91993,91917
8.92253,93189
8.92515,92465
8.92775,96950
8.93037,96803
8.93297,90443
8.93557,93876
8.93818,95299
8.94078,94339
8.94340,92969
8.94600,92073
8.94860,91855
8.95122,94358
8.95382,94173
8.95643,93189
8.95903,94662
8.96163,90810
8.96425,92537
8.96685,96962
8.96947,89732
8.97207,94248
8.97468,90101
8.97728,94753
8.97988,92407
8.98250,92629
8.98510,98512
8.98772,94723
8.99032,96448
8.99292,91751
8.99553,92934
8.99813,93748
9.00075,94741
9.00335,92121
9.00595,96643
9.00857,98273
9.01117,98680
9.01378,97667
9.01638,96860
9.01898,98404
9.02160,96753
9.02420,93313
9.02682,97171
9.02942,95403
9.03202,98362
9.03463,98508
9.03723,99396
9.03985,98345
9.04245,100726
9.04505,98281
9.04767,98540
9.05027,100445
9.05288,99626
9.05548,95061
9.05810,101239
9.06070,97008
9.06330,102007
9.06592,103579
9.06852,96731
9.07113,96172
9.07373,95373
9.07633,99073
9.07895,99856
9.08155,99536
9.08417,94311
9.08677,98272
9.08937,94017
9.09198,100058
9.09458,96230
9.09720,98842
9.09980,101004
9.10240,96700
9.10502,98930
9.10762,96920
9.11023,104189
9.11283,99119
9.11543,102659
9.11805,101518
9.12065,97315
9.12327,101708
9.12587,102840
9.12847,105351
9.13108,101683
9.13368,106540
9.13630,101541
9.13890,100369
9.14152,103957
9.14412,102954
9.14672,102429
9.14933,101508
9.15193,98064
9.15455,101935
9.15715,97818
9.15975,101741
9.16237,95297
9.16497,101855
9.16758,97667
9.17018,99502
9.17278,96757
9.17540,97424
9.17800,99617
9.18062,103604
9.18322,103471
9.18582,104309
9.18843,100659
9.19103,99695
9.19365,101177
9.19625,105155
9.19885,107558
9.20147,105402
9.20407,104633
9.20668,104831
9.20928,99983
9.21188,102302
9.21450,103609
9.21710,97999
9.21972,100019
9.22232,98208
9.22493,97287
9.22753,103411
9.23013,100743
9.23275,101075
9.23535,96293
9.23797,100508
9.24057,97414
9.24317,99591
9.24578,96239
9.24838,100342
9.25100,103781
9.25360,99715
9.25620,101114
9.25882,97503
9.26142,97324
9.26403,96866
9.26663,100033
9.26923,100234
9.27185,103220
9.27445,100534
9.27707,101014
9.27967,96869
9.28227,101723
9.28488,95952
9.28748,99242
9.29010,92370
9.29270,104306
9.29530,95590
9.29792,95723
9.30052,96583
9.30313,100926
9.30573,100156
9.30835,96687
9.31095,104140
9.31355,100502
9.31617,101147
9.31877,100693
9.32138,97683
9.32398,98593
9.32658,97332
9.32920,100935
9.33180,98847
9.33442,97576
9.33702,98566
9.33962,100982
9.34223,103436
9.34483,100637
9.34745,95714
9.35005,98719
9.35265,98105
9.35527,97469
9.35787,101700
9.36048,101971
9.36308,101829
9.36568,99418
9.36830,103298
9.37090,100757
9.37352,101528
9.37612,99233
9.37872,93299
9.38133,99305
9.38393,99193
9.38655,97317
9.38915,97873
9.39177,104651
9.39437,100385
9.39697,98038
9.39958,95307
9.40218,99786
9.40480,99055
9.40740,95434
9.41000,98093
9.41262,100392
9.41522,97768
9.41783,101461
9.42043,103898
9.42303,98666
9.42565,99179
9.42825,100408
9.43087,100792
9.43347,102034
9.43607,97608
9.43868,101406
9.44128,101242
9.44390,98219
9.44650,97922
9.44910,98101
9.45172,95020
9.45432,106446
9.45693,103682
9.45953,98420
9.46213,99317
9.46475,99611
9.46735,102124
9.46997,108903
9.47257,102939
9.47518,102490
9.47778,99137
9.48038,102865
9.48300,100469
9.48560,99970
9.48822,101455
9.49082,103593
9.49342,100000
9.49603,97415
9.49863,97093
9.50125,95518
9.50385,102283
9.50645,101578
9.50907,102191
9.51167,100491
9.51428,99132
9.51688,103176
9.51948,103418
9.52210,103357
9.52470,99881
9.52732,94945
9.52992,95482
9.53252,99700
9.53513,98715
9.53773,100917
9.54035,105626
9.54295,100089
9.54555,100566
9.54817,97398
9.55077,97264
9.55338,98571
9.55598,99807
9.55860,101781
9.56120,102954
9.56380,103962
9.56642,103183
9.56902,101475
9.57163,96715
9.57423,102096
9.57683,99889
9.57945,100413
9.58205,98573
9.58467,100522
9.58727,102319
9.58987,99136
9.59248,100405
9.59508,98746
9.59770,96937
9.60030,103711
9.60290,103285
9.60552,94069
9.60812,102737
9.61073,101177
9.61333,100823
9.61593,101235
9.61855,103907
9.62115,99459
9.62377,99320
9.62637,104732
9.62897,102457
9.63158,104212
9.63418,100371
9.63680,101692
9.63940,101916
9.64202,97062
9.64462,100898
9.64722,97803
9.64983,102429
9.65243,99865
9.65505,102282
9.65765,100173
9.66025,100495
9.66287,101576
9.66547,100903
9.66808,98270
9.67068,98094
9.67328,99674
9.67590,99193
9.67850,98337
9.68112,100339
9.68372,97996
9.68632,101520
9.68893,102983
9.69153,100779
9.69415,104439
9.69675,98437
9.69935,99000
9.70197,99932
9.70457,100205
9.70718,101731
9.70978,101340
9.71238,100357
9.71500,101044
9.71760,97265
9.72022,104645
9.72282,101192
9.72543,99025
9.72803,99426
9.73063,98473
9.73325,100301
9.73585,102857
9.73847,96731
9.74107,99115
9.74367,100406
9.74628,98333
9.74888,96315
9.75150,98689
9.75410,100642
9.75670,99674
9.75932,98336
9.76192,101221
9.76453,101273
9.76713,102525
9.76973,98709
9.77235,99426
9.77495,100575
9.77757,100423
9.78017,101903
9.78277,96995
9.78538,101718
9.78798,99112
9.79060,103250
9.79320,100955
9.79580,99371
9.79842,98432
9.80102,102573
9.80363,100384
9.80623,98928
9.80885,100600
9.81145,105007
9.81405,99671
9.81667,103848
9.81927,105021
9.82188,101718
9.82448,99430
9.82708,100742
9.82970,100757
9.83230,102040
9.83492,100416
9.83752,100543
9.84012,102182
9.84273,101243
9.84533,99866
9.84795,100096
9.85055,98901
9.85315,103838
9.85577,99687
9.85837,100337
9.86098,98890
9.86358,102123
9.86618,99534
9.86880,101501
9.87140,100724
9.87402,101121
9.87662,97863
9.87922,99542
9.88183,101693
9.88443,98016
9.88705,98133
9.88965,100843
9.89227,102346
9.89487,97978
9.89747,98918
9.90008,97816
9.90268,98343
9.90530,97757
9.90790,99957
9.91050,98953
9.91312,101481
9.91572,97197
9.91833,100545
9.92093,99930
9.92353,102129
9.92615,102954
9.92875,101055
9.93137,100334
9.93397,99481
9.93657,101838
9.93918,98922
9.94178,103693
9.94440,98226
9.94700,99702
9.94960,101251
9.95222,101811
9.95482,99431
9.95743,100754
9.96003,103874
9.96263,98757
9.96525,100956
9.96785,101288
9.97047,100251
9.97307,99496
9.97568,100687
9.97828,100031
9.98088,98691
9.98350,99190
9.98610,99702
9.98872,96195
9.99132,99240
9.99392,102118
9.99653,100313
9.99913,100791
10.00175,100332
10.00435,101351
10.00695,100548
10.00957,99162
10.01217,100688
10.01478,101652
10.01738,100998
10.01998,100627
10.02260,99410
10.02520,103229
10.02782,98813
10.03042,99043
10.03302,102391
10.03563,104288
10.03823,101903
10.04085,100490
10.04345,101094
10.04605,102588
10.04867,101499
10.05127,97499
10.05388,102114
10.05648,101892
10.05910,104298
10.06170,106156
10.06430,100522
10.06692,99478
10.06952,102848
10.07213,98673
10.07473,102111
10.07733,104134
10.07995,103750
10.08255,101189
10.08517,106192
10.08777,99506
10.09037,97904
10.09298,103619
10.09558,100486
10.09820,101327
10.10080,106628
10.10340,105686
10.10602,105976
10.10862,99377
10.11123,101259
10.11383,101041
10.11643,101470
10.11905,106042
10.12165,101632
10.12427,104870
10.12687,101382
10.12947,100618
10.13208,99085
10.13468,101070
10.13730,102112
10.13990,102116
10.14252,100883
10.14512,99427
10.14772,100060
10.15033,100133
10.15293,101980
10.15555,101182
10.15815,98627
10.16075,100767
10.16337,100914
10.16597,101685
10.16858,99973
10.17118,99407
10.17378,101737
10.17640,102263
10.17900,104028
10.18162,98888
10.18422,106321
10.18682,99267
10.18943,101290
10.19203,101489
10.19465,100300
10.19725,103291
10.19985,98145
10.20247,107563
10.20507,100506
10.20768,100937
10.21028,104479
10.21288,100594
10.21550,103210
10.21810,99761
10.22072,101284
10.22332,101567
10.22593,101218
10.22853,106329
10.23113,98350
10.23375,102424
10.23635,104510
10.23897,104097
10.24157,103668
10.24417,103721
10.24678,99941
10.24938,102400
10.25200,97348
10.25460,100508
10.25720,100166
10.25982,98718
10.26242,101198
10.26503,104024
10.26763,100886
10.27023,103188
10.27285,101209
10.27545,104876
10.27807,98818
10.28067,98555
10.28327,97143
10.28588,100854
10.28848,99177
10.29110,105301
10.29370,102862
10.29630,99200
10.29892,97480
10.30152,103381
10.30413,103160
10.30673,104693
10.30935,101608
10.31195,106663
10.31455,100280
10.31717,100899
10.31977,100337
10.32238,102294
10.32498,100298
10.32758,101211
10.33020,99183
10.33280,101082
10.33542,101605
10.33802,104397
10.34062,101235
10.34323,99351
10.34583,96671
10.34845,106704
10.35105,103548
10.35365,103342
10.35627,105239
10.35887,98649
10.36148,102029
10.36408,101125
10.36668,104244
10.36930,104110
10.37190,103760
10.37452,101755
10.37712,99742
10.37972,99445
10.38233,100823
10.38493,102612
10.38755,105796
10.39015,98911
10.39277,100396
10.39537,103580
10.39797,100845
10.40058,101094
10.40318,104816
10.40580,102604
10.40840,98254
10.41100,104826
10.41362,104018
10.41622,101199
10.41883,103399
10.42143,102972
10.42403,101047
10.42665,99026
10.42925,103174
10.43187,101453
10.43447,104896
10.43707,105838
10.43968,106715
10.44228,100255
10.44490,102367
10.44750,106477
10.45010,100223
10.45272,107659
10.45532,104042
10.45793,109187
10.46053,107385
10.46313,109446
10.46575,108600
10.46835,107037
10.47097,107127
10.47357,106130
10.47618,108030
10.47878,107248
10.48138,105278
10.48400,107121
10.48660,105539
10.48922,105169
10.49182,106463
10.49442,107865
10.49703,106389
10.49963,107061
10.50225,105670
10.50485,104396
10.50745,104504
10.51007,110036
10.51267,107123
10.51528,108154
10.51788,104769
10.52048,107324
10.52310,103801
10.52570,109108
10.52832,104051
10.53092,101664
10.53352,103380
10.53613,107130
10.53873,101475
10.54135,104360
10.54395,99552
10.54655,102530
10.54917,103765
10.55177,102053
10.55438,101428
10.55698,101996
10.55960,102678
10.56220,103446
10.56480,103171
10.56742,102955
10.57002,101185
10.57263,102378
10.57523,102095
10.57783,98786
10.58045,102917
10.58305,98873
10.58567,103084
10.58827,105147
10.59087,104275
10.59348,99543
10.59608,101683
10.59870,102242
10.60130,100370
10.60390,98044
10.60652,103385
10.60912,100267
10.61173,103799
10.61433,99364
10.61693,107446
10.61955,104619
10.62215,101143
10.62477,100263
10.62737,105091
10.62997,103645
10.63258,98838
10.63518,105530
10.63780,104880
10.64040,99822
10.64302,99764
10.64562,99528
10.64822,98603
10.65083,100579
10.65343,104385
10.65605,104876
10.65865,100578
10.66125,103779
10.66387,102310
