D:\data\overige2021\rk\20200201rk_cocacase28x\B039753.D Mon Feb 01 15:01:46 2021
Start of data points
1.58972,23504
1.59233,24884
1.59493,23589
1.59755,23016
1.60015,23450
1.60275,23755
1.60537,23338
1.60797,22045
1.61058,22479
1.61318,22968
1.61580,22473
1.61840,22006
1.62100,22537
1.62362,22183
1.62622,22525
1.62883,22143
1.63143,21766
1.63403,19064
1.63665,19062
1.63925,19626
1.64187,20847
1.64447,19542
1.64707,20614
1.64968,23326
1.65228,22539
1.65490,21155
1.65750,16831
1.66010,15964
1.66272,19760
1.66532,19680
1.66793,18732
1.67053,16909
1.67313,15430
1.67575,17504
1.67835,19738
1.68097,17459
1.68357,17871
1.68617,16167
1.68878,19049
1.69138,15176
1.69400,18082
1.69660,18835
1.69922,17793
1.70182,16556
1.70442,16445
1.70703,15379
1.70963,17351
1.71225,16934
1.71485,15314
1.71745,15500
1.72007,14583
1.72267,15889
1.72528,14513
1.72788,16248
1.73048,16481
1.73310,14737
1.73570,15948
1.73832,15652
1.74092,15264
1.74352,16406
1.74613,15674
1.74873,14878
1.75135,15086
1.75395,16832
1.75655,16209
1.75917,13550
1.76177,14350
1.76438,14268
1.76698,14532
1.76958,15490
1.77220,12991
1.77480,13419
1.77742,14542
1.78002,12251
1.78263,15192
1.78523,12538
1.78783,11160
1.79045,16024
1.79305,13015
1.79567,11116
1.79827,14466
1.80087,14199
1.80348,13204
1.80608,11728
1.80870,12326
1.81130,14052
1.81390,12298
1.81652,13372
1.81912,11907
1.82173,12150
1.82433,12812
1.82693,12077
1.82955,11889
1.83215,12670
1.83477,11894
1.83737,11757
1.83997,11806
1.84258,13872
1.84518,11334
1.84780,11168
1.85040,11356
1.85300,11120
1.85562,13606
1.85822,11532
1.86083,12117
1.86343,12681
1.86605,10743
1.86865,10791
1.87125,9842
1.87387,12687
1.87647,11408
1.87908,12014
1.88168,10593
1.88428,11589
1.88690,11509
1.88950,10447
1.89212,12331
1.89472,11407
1.89732,12451
1.89993,11534
1.90253,11540
1.90515,11900
1.90775,9941
1.91035,11679
1.91297,11822
1.91557,11771
1.91818,12164
1.92078,10167
1.92338,12096
1.92600,12316
1.92860,10276
1.93122,11709
1.93382,11867
1.93642,11036
1.93903,9457
1.94163,10041
1.94425,10516
1.94685,9632
1.94947,9446
1.95207,10157
1.95467,9505
1.95728,11242
1.95988,9719
1.96250,9908
1.96510,9941
1.96770,11779
1.97032,10967
1.97292,10189
1.97553,10423
1.97813,11277
1.98073,10656
1.98335,11301
1.98595,10590
1.98857,13131
1.99117,10325
1.99377,10945
1.99638,11493
1.99898,8974
2.00160,9933
2.00420,10923
2.00680,10108
2.00942,9873
2.01202,10050
2.01463,9785
2.01723,10113
2.01983,10212
2.02245,10864
2.02505,10612
2.02767,10141
2.03027,10148
2.03288,10357
2.03548,11102
2.03808,10134
2.04070,10267
2.04330,11622
2.04592,10659
2.04852,12259
2.05112,11949
2.05373,13163
2.05633,13130
2.05895,12704
2.06155,12167
2.06415,11364
2.06677,10751
2.06937,11061
2.07198,10456
2.07458,11725
2.07718,10734
2.07980,10457
2.08240,12329
2.08502,10146
2.08762,11142
2.09022,9258
2.09283,11326
2.09543,10994
2.09805,10521
2.10065,8725
2.10325,8768
2.10587,9492
2.10847,11273
2.11108,9710
2.11368,9545
2.11630,9943
2.11890,11757
2.12150,10504
2.12412,10772
2.12672,9683
2.12933,10853
2.13193,10851
2.13453,11458
2.13715,10138
2.13975,10699
2.14237,9937
2.14497,9239
2.14757,8647
2.15018,9497
2.15278,10735
2.15540,10318
2.15800,10327
2.16060,8434
2.16322,11647
2.16582,10839
2.16843,10654
2.17103,9945
2.17363,9438
2.17625,9480
2.17885,8979
2.18147,10853
2.18407,9654
2.18667,9419
2.18928,9760
2.19188,9865
2.19450,9040
2.19710,9291
2.19972,10292
2.20232,9154
2.20492,8268
2.20753,10037
2.21013,9727
2.21275,10739
2.21535,10073
2.21795,9822
2.22057,8537
2.22317,8551
2.22578,9704
2.22838,10008
2.23098,9653
2.23360,10573
2.23620,7383
2.23882,8756
2.24142,10793
2.24402,9726
2.24663,9891
2.24923,9707
2.25185,9268
2.25445,8834
2.25705,9685
2.25967,9239
2.26227,8564
2.26488,10382
2.26748,8939
2.27008,9721
2.27270,10161
2.27530,10038
2.27792,10232
2.28052,8336
2.28313,10255
2.28573,9207
2.28833,8429
2.29095,10233
2.29355,9079
2.29617,10157
2.29877,10479
2.30137,9278
2.30398,9581
2.30658,8886
2.30920,10370
2.31180,10185
2.31440,9403
2.31702,9258
2.31962,9751
2.32223,9394
2.32483,10573
2.32743,9395
2.33005,9029
2.33265,8498
2.33527,8446
2.33787,10541
2.34047,9269
2.34308,8476
2.34568,9339
2.34830,9290
2.35090,7834
2.35350,7892
2.35612,10011
2.35872,8839
2.36133,9093
2.36393,8475
2.36655,9246
2.36915,9620
2.37175,8522
2.37437,11141
2.37697,9670
2.37958,8907
2.38218,8606
2.38478,9653
2.38740,9291
2.39000,8444
2.39262,11015
2.39522,10061
2.39782,9712
2.40043,9706
2.40303,9591
2.40565,9117
2.40825,9150
2.41085,9700
2.41347,10978
2.41607,8451
2.41868,9705
2.42128,8627
2.42388,8749
2.42650,9032
2.42910,9517
2.43172,8281
2.43432,7046
2.43692,8471
2.43953,8519
2.44213,8789
2.44475,10314
2.44735,10719
2.44997,10127
2.45257,11165
2.45517,10306
2.45778,10520
2.46038,9658
2.46300,10643
2.46560,12372
2.46820,11325
2.47082,11071
2.47342,10922
2.47603,10459
2.47863,10242
2.48123,8342
2.48385,10461
2.48645,9159
2.48907,9724
2.49167,8934
2.49427,8617
2.49688,10905
2.49948,9046
2.50210,8987
2.50470,9425
2.50730,8103
2.50992,10125
2.51252,8916
2.51513,9244
2.51773,9729
2.52033,8502
2.52295,9404
2.52555,9118
2.52817,9389
2.53077,9633
2.53338,8797
2.53598,8744
2.53858,9284
2.54120,8892
2.54380,9513
2.54642,9996
2.54902,8591
2.55162,9269
2.55423,10067
2.55683,7538
2.55945,9405
2.56205,9448
2.56465,9680
2.56727,8664
2.56987,9916
2.57248,8072
2.57508,9698
2.57768,10160
2.58030,8839
2.58290,9791
2.58552,8434
2.58812,8817
2.59072,7942
2.59333,10776
2.59593,7732
2.59855,9685
2.60115,10338
2.60375,9103
2.60637,8704
2.60897,7272
2.61158,8822
2.61418,9823
2.61680,8750
2.61940,9677
2.62200,10797
2.62462,10135
2.62722,9650
2.62983,9137
2.63243,10417
2.63503,9313
2.63765,8107
2.64025,8743
2.64287,9733
2.64547,9227
2.64807,8172
2.65068,9320
2.65328,8471
2.65590,10741
2.65850,8946
2.66110,8807
2.66372,9936
2.66632,8125
2.66893,8784
2.67153,8915
2.67413,8486
2.67675,9531
2.67935,9569
2.68197,9095
2.68457,8294
2.68717,9027
2.68978,9131
2.69238,8362
2.69500,8868
2.69760,9161
2.70022,8435
2.70282,9638
2.70542,8203
2.70803,9717
2.71063,7582
2.71325,9670
2.71585,10076
2.71845,8794
2.72107,9321
2.72367,8206
2.72628,9064
2.72888,9539
2.73148,8444
2.73410,9047
2.73670,9091
2.73932,9593
2.74192,9736
2.74452,9706
2.74713,10516
2.74973,9182
2.75235,9818
2.75495,7752
2.75755,10046
2.76017,9921
2.76277,9672
2.76538,9249
2.76798,10719
2.77058,8672
2.77320,9074
2.77580,8905
2.77842,8854
2.78102,7939
2.78363,9355
2.78623,9599
2.78883,8595
2.79145,8883
2.79405,7795
2.79667,9268
2.79927,8436
2.80187,9993
2.80448,8203
2.80708,8467
2.80970,9562
2.81230,8954
2.81490,8857
2.81752,8325
2.82012,9360
2.82273,8476
2.82533,8771
2.82793,7218
2.83055,8359
2.83315,10475
2.83577,9295
2.83837,7954
2.84097,8716
2.84358,8855
2.84618,6399
2.84880,8438
2.85140,11351
2.85400,7924
2.85662,7774
2.85922,8145
2.86183,9144
2.86443,8571
2.86705,8177
2.86965,8980
2.87225,7949
2.87487,8133
2.87747,8266
2.88008,9074
2.88268,9101
2.88528,8197
2.88790,8842
2.89050,8767
2.89312,8633
2.89572,9745
2.89832,9641
2.90093,8185
2.90353,9241
2.90615,7956
2.90875,8242
2.91135,8785
2.91397,9162
2.91657,8805
2.91918,9563
2.92178,8435
2.92438,8357
2.92700,8219
2.92960,7859
2.93222,9437
2.93482,8884
2.93742,9727
2.94003,8847
2.94263,7475
2.94525,7424
2.94785,9097
2.95047,7582
2.95307,8942
2.95567,8794
2.95828,8457
2.96088,10402
2.96350,8437
2.96610,9742
2.96870,7755
2.97132,8662
2.97392,8195
2.97653,8357
2.97913,9199
2.98173,8172
2.98435,9659
2.98695,9177
2.98957,9209
2.99217,7687
2.99477,9311
2.99738,8837
2.99998,9834
3.00260,9116
3.00520,9666
3.00780,8717
3.01042,8738
3.01302,8643
3.01563,9524
3.01823,8066
3.02083,9620
3.02345,10793
3.02605,9517
3.02867,8850
3.03127,9261
3.03388,7654
3.03648,8085
3.03908,9542
3.04170,8816
3.04430,6575
3.04692,10062
3.04952,7354
3.05212,8648
3.05473,8715
3.05733,8963
3.05995,8404
3.06255,8645
3.06515,9360
3.06777,9232
3.07037,7321
3.07298,8885
3.07558,9912
3.07818,7928
3.08080,8245
3.08340,9073
3.08602,8434
3.08862,8485
3.09122,8908
3.09383,8564
3.09643,8325
3.09905,7524
3.10165,7865
3.10425,8897
3.10687,10143
3.10947,9176
3.11208,10575
3.11468,11477
3.11730,12240
3.11990,14929
3.12250,18078
3.12512,20825
3.12772,18539
3.13033,20214
3.13293,16595
3.13553,18843
3.13815,15838
3.14075,14584
3.14337,15557
3.14597,12931
3.14857,11875
3.15118,12939
3.15378,13078
3.15640,11613
3.15900,10485
3.16160,9892
3.16422,11551
3.16682,10671
3.16943,12068
3.17203,10341
3.17463,11264
3.17725,11404
3.17985,9320
3.18247,9648
3.18507,9852
3.18767,10164
3.19028,9513
3.19288,9175
3.19550,8835
3.19810,10594
3.20072,8734
3.20332,9479
3.20592,10404
3.20853,9341
3.21113,10256
3.21375,11283
3.21635,10057
3.21895,9076
3.22157,9423
3.22417,10668
3.22678,9090
3.22938,10580
3.23198,8782
3.23460,8183
3.23720,8369
3.23982,9314
3.24242,8441
3.24502,9038
3.24763,6869
3.25023,10385
3.25285,9573
3.25545,8776
3.25805,10690
3.26067,9053
3.26327,7213
3.26588,9086
3.26848,9028
3.27108,9768
3.27370,9530
3.27630,8188
3.27892,8919
3.28152,10227
3.28413,9108
3.28673,10168
3.28933,9288
3.29195,10019
3.29455,10258
3.29717,8533
3.29977,9583
3.30237,8047
3.30498,8912
3.30758,9716
3.31020,7469
3.31280,8910
3.31540,8885
3.31802,7344
3.32062,9227
3.32323,10368
3.32583,8912
3.32843,10052
3.33105,8536
3.33365,9842
3.33627,10001
3.33887,9254
3.34147,7126
3.34408,8049
3.34668,8055
3.34930,8600
3.35190,8555
3.35450,9445
3.35712,8262
3.35972,8227
3.36233,7870
3.36493,8024
3.36755,9558
3.37015,8534
3.37275,7982
3.37537,9041
3.37797,9154
3.38058,7240
3.38318,7581
3.38578,9843
3.38840,8348
3.39100,8686
3.39362,8477
3.39622,10257
3.39882,11753
3.40143,10999
3.40403,11529
3.40665,11639
3.40925,11567
3.41185,10289
3.41447,10464
3.41707,11746
3.41968,8448
3.42228,8439
3.42488,8205
3.42750,9807
3.43010,10473
3.43272,8197
3.43532,8124
3.43792,8247
3.44053,9151
3.44313,9290
3.44575,8885
3.44835,9473
3.45097,8553
3.45357,8878
3.45617,7627
3.45878,8448
3.46138,8617
3.46400,8730
3.46660,8974
3.46920,9094
3.47182,8807
3.47442,9405
3.47703,9699
3.47963,7688
3.48223,8437
3.48485,9589
3.48745,7912
3.49007,8327
3.49267,9792
3.49527,9176
3.49788,9815
3.50048,8220
3.50310,9185
3.50570,8874
3.50830,11389
3.51092,12210
3.51352,21032
3.51613,33086
3.51873,42421
3.52133,48684
3.52395,46883
3.52655,37837
3.52917,27800
3.53177,20411
3.53438,15903
3.53698,15697
3.53958,14032
3.54220,12907
3.54480,14624
3.54742,12102
3.55002,13932
3.55262,12949
3.55523,13160
3.55783,13234
3.56045,12105
3.56305,12002
3.56565,10926
3.56827,12851
3.57087,11509
3.57348,11994
3.57608,12579
3.57868,12211
3.58130,13104
3.58390,13785
3.58652,12468
3.58912,11569
3.59172,12983
3.59433,11611
3.59693,13038
3.59955,11565
3.60215,12475
3.60475,12164
3.60737,13073
3.60997,13201
3.61258,13505
3.61518,13886
3.61780,12424
3.62040,14463
3.62300,12628
3.62562,12603
3.62822,12275
3.63083,12654
3.63343,12328
3.63603,14531
3.63865,15446
3.64125,13584
3.64387,13705
3.64647,15168
3.64907,14571
3.65168,13586
3.65428,12829
3.65690,12608
3.65950,13200
3.66210,12146
3.66472,14450
3.66732,13694
3.66993,13131
3.67253,12652
3.67513,12872
3.67775,13477
3.68035,10934
3.68297,13483
3.68557,12073
3.68817,11790
3.69078,12843
3.69338,13014
3.69600,12208
3.69860,10097
3.70122,12569
3.70382,10594
3.70642,13561
3.70903,11854
3.71163,12891
3.71425,13761
3.71685,11489
3.71945,10822
3.72207,12082
3.72467,10178
3.72728,11378
3.72988,12911
3.73248,11738
3.73510,11359
3.73770,13079
3.74032,11559
3.74292,13916
3.74552,11681
3.74813,12370
3.75073,12418
3.75335,11476
3.75595,12737
3.75855,12842
3.76117,11819
3.76377,12126
3.76638,12358
3.76898,13341
3.77158,12605
3.77420,15349
3.77680,14357
3.77942,12134
3.78202,13228
3.78463,10573
3.78723,13602
3.78983,13149
3.79245,12924
3.79505,11513
3.79767,11753
3.80027,13599
3.80287,12325
3.80548,11269
3.80808,11275
3.81070,13059
3.81330,11872
3.81590,11837
3.81852,11721
3.82112,13344
3.82373,13743
3.82633,13113
3.82893,12548
3.83155,12945
3.83415,12912
3.83677,12340
3.83937,11087
3.84197,11259
3.84458,11244
3.84718,12557
3.84980,14052
3.85240,12556
3.85500,11582
3.85762,12849
3.86022,13091
3.86283,12279
3.86543,10981
3.86805,12220
3.87065,12013
3.87325,13008
3.87587,11707
3.87847,12751
3.88108,12129
3.88368,11193
3.88628,12123
3.88890,12373
3.89150,12468
3.89412,12833
3.89672,12821
3.89932,13855
3.90193,11149
3.90453,11495
3.90715,12552
3.90975,12239
3.91235,13147
3.91497,12818
3.91757,12472
3.92018,12799
3.92278,11714
3.92538,12971
3.92800,11397
3.93060,13024
3.93322,14554
3.93582,15996
3.93842,15721
3.94103,16292
3.94363,15378
3.94625,15779
3.94885,13449
3.95147,13190
3.95407,12372
3.95667,12317
3.95928,13103
3.96188,11824
3.96450,11571
3.96710,14596
3.96970,12835
3.97232,12898
3.97492,12090
3.97753,13448
3.98013,12028
3.98273,12873
3.98535,12237
3.98795,13160
3.99057,12031
3.99317,12907
3.99577,12821
3.99838,11308
4.00098,14587
4.00360,12476
4.00620,10814
4.00880,12480
4.01142,11306
4.01402,11643
4.01663,13681
4.01923,10487
4.02183,11612
4.02445,10435
4.02705,13530
4.02967,12019
4.03227,11062
4.03488,12758
4.03748,11358
4.04008,11184
4.04270,12330
4.04530,11609
4.04792,11493
4.05052,11863
4.05312,12558
4.05573,12897
4.05833,11747
4.06095,13033
4.06355,13218
4.06615,13967
4.06877,12084
4.07137,12872
4.07398,12069
4.07658,11182
4.07918,11458
4.08180,11435
4.08440,12943
4.08702,12601
4.08962,12752
4.09222,13114
4.09483,11532
4.09743,11591
4.10005,9910
4.10265,12162
4.10525,10431
4.10787,10945
4.11047,11938
4.11308,12242
4.11568,11073
4.11830,12951
4.12090,11115
4.12350,12322
4.12612,11476
4.12872,12638
4.13133,13399
4.13393,12552
4.13653,12018
4.13915,11309
4.14175,12423
4.14437,12165
4.14697,13428
4.14957,11586
4.15218,12951
4.15478,10226
4.15740,12033
4.16000,11930
4.16260,12555
4.16522,11600
4.16782,11814
4.17043,11646
4.17303,11841
4.17563,12123
4.17825,12911
4.18085,12250
4.18347,12066
4.18607,11996
4.18867,13423
4.19128,12762
4.19388,12593
4.19650,12314
4.19910,12435
4.20172,12311
4.20432,12122
4.20692,11653
4.20953,10788
4.21213,12016
4.21475,10797
4.21735,12145
4.21995,11493
4.22257,10900
4.22517,12223
4.22778,12498
4.23038,12835
4.23298,11608
4.23560,12502
4.23820,11664
4.24082,10903
4.24342,13772
4.24602,13107
4.24863,12419
4.25123,11078
4.25385,9713
4.25645,13470
4.25905,11274
4.26167,12246
4.26427,11625
4.26688,11695
4.26948,11236
4.27208,11094
4.27470,10786
4.27730,12389
4.27992,11200
4.28252,9991
4.28513,11403
4.28773,12262
4.29033,10812
4.29295,11073
4.29555,13022
4.29817,13523
4.30077,12064
4.30337,13812
4.30598,11148
4.30858,10488
4.31120,12373
4.31380,12225
4.31640,12826
4.31902,12163
4.32162,12997
4.32423,13978
4.32683,11242
4.32943,12456
4.33205,9875
4.33465,11889
4.33727,10935
4.33987,13473
4.34247,13040
4.34508,11106
4.34768,13326
4.35030,13447
4.35290,11455
4.35550,12267
4.35812,13906
4.36072,12297
4.36333,14256
4.36593,13024
4.36855,13888
4.37115,12653
4.37375,12135
4.37637,11887
4.37897,11853
4.38158,12347
4.38418,11801
4.38678,12009
4.38940,13182
4.39200,11160
4.39462,11379
4.39722,11547
4.39982,10220
4.40243,11667
4.40503,13558
4.40765,11747
4.41025,10475
4.41285,12293
4.41547,13927
4.41807,10675
4.42068,11556
4.42328,13736
4.42588,13215
4.42850,13717
4.43110,11777
4.43372,12401
4.43632,11907
4.43892,12734
4.44153,13557
4.44413,13418
4.44675,13376
4.44935,13547
4.45197,13795
4.45457,12708
4.45717,11971
4.45978,12002
4.46238,11919
4.46500,13156
4.46760,13474
4.47020,12900
4.47282,14393
4.47542,13576
4.47803,12632
4.48063,11690
4.48323,11268
4.48585,12254
4.48845,10566
4.49107,9317
4.49367,12470
4.49627,12549
4.49888,12765
4.50148,11837
4.50410,11897
4.50670,11713
4.50930,10536
4.51192,11417
4.51452,12911
4.51713,12508
4.51973,11678
4.52233,12230
4.52495,12953
4.52755,12465
4.53017,13157
4.53277,10963
4.53538,12618
4.53798,11876
4.54058,12372
4.54320,11454
4.54580,12704
4.54842,13507
4.55102,11920
4.55362,12433
4.55623,12605
4.55883,13720
4.56145,10945
4.56405,11717
4.56665,13218
4.56927,12314
4.57187,12305
4.57448,10713
4.57708,13503
4.57968,11823
4.58230,12590
4.58490,13528
4.58752,11196
4.59012,13197
4.59272,11735
4.59533,12238
4.59793,9891
4.60055,11547
4.60315,11598
4.60575,11010
4.60837,11392
4.61097,11931
4.61358,12436
4.61618,12365
4.61880,12760
4.62140,13442
4.62400,11621
4.62662,10060
4.62922,11657
4.63183,13377
4.63443,11174
4.63703,11249
4.63965,13468
4.64225,11529
4.64487,12861
4.64747,14289
4.65007,12691
4.65268,12692
4.65528,12969
4.65790,9882
4.66050,12987
4.66310,12261
4.66572,11387
4.66832,11129
4.67093,12983
4.67353,11602
4.67613,12990
4.67875,13265
4.68135,13774
4.68397,12613
4.68657,11101
4.68917,10303
4.69178,10694
4.69438,13574
4.69700,12978
4.69960,13117
4.70222,13522
4.70482,11902
4.70742,13083
4.71003,13837
4.71263,11989
4.71525,12802
4.71785,12004
4.72045,13952
4.72307,12189
4.72567,11581
4.72828,12677
4.73088,11830
4.73348,12694
4.73610,11603
4.73870,11044
4.74132,13499
4.74392,13805
4.74652,13003
4.74913,11709
4.75173,12766
4.75435,13501
4.75695,11862
4.75955,11378
4.76217,12754
4.76477,12714
4.76738,12692
4.76998,11568
4.77258,12211
4.77520,13591
4.77780,13998
4.78042,13374
4.78302,13719
4.78563,14071
4.78823,12839
4.79083,12736
4.79345,12459
4.79605,12430
4.79867,14848
4.80127,14173
4.80387,12299
4.80648,12168
4.80908,11037
4.81170,12093
4.81430,10343
4.81690,13542
4.81952,13634
4.82212,12827
4.82473,14149
4.82733,12032
4.82993,13003
4.83255,12599
4.83515,11990
4.83777,13033
4.84037,13882
4.84297,11409
4.84558,13185
4.84818,14218
4.85080,9874
4.85340,11739
4.85600,13828
4.85862,14777
4.86122,12601
4.86383,12025
4.86643,12437
4.86905,13443
4.87165,12162
4.87425,12191
4.87687,12283
4.87947,12288
4.88208,12201
4.88468,11946
4.88728,13763
4.88990,13130
4.89250,13642
4.89512,10981
4.89772,11318
4.90032,12064
4.90293,12995
4.90553,12016
4.90815,12644
4.91075,10971
4.91335,13377
4.91597,13465
4.91857,11394
4.92118,11501
4.92378,12202
4.92638,12020
4.92900,11799
4.93160,12888
4.93422,15403
4.93682,12146
4.93942,12130
4.94203,11527
4.94463,13799
4.94725,13391
4.94985,12600
4.95247,13024
4.95507,12826
4.95767,13821
4.96028,12425
4.96288,11802
4.96550,12858
4.96810,10907
4.97070,12085
4.97332,12130
4.97592,11128
4.97853,12979
4.98113,10682
4.98373,12867
4.98635,13463
4.98895,12592
4.99157,10839
4.99417,11627
4.99677,10485
4.99938,12673
5.00198,12642
5.00460,12447
5.00720,11843
5.00980,11528
5.01242,13326
5.01502,11837
5.01763,11711
5.02023,12736
5.02283,11855
5.02545,13360
5.02805,12539
5.03067,11907
5.03327,11698
5.03588,11786
5.03848,12581
5.04108,12902
5.04370,11427
5.04630,12008
5.04892,11956
5.05152,12142
5.05412,12347
5.05673,13147
5.05933,14163
5.06195,12176
5.06455,12452
5.06715,12581
5.06977,13164
5.07237,12320
5.07498,12964
5.07758,12020
5.08018,12796
5.08280,12025
5.08540,13410
5.08802,13695
5.09062,11736
5.09322,13804
5.09583,11252
5.09843,12710
5.10105,12305
5.10365,13458
5.10625,12284
5.10887,12073
5.11147,12906
5.11408,12250
5.11668,12642
5.11930,12640
5.12190,14541
5.12450,14244
5.12712,11843
5.12972,12717
5.13233,11508
5.13493,14153
5.13753,13199
5.14015,12102
5.14275,14236
5.14537,12882
5.14797,12205
5.15057,14139
5.15318,12395
5.15578,12867
5.15840,11320
5.16100,12496
5.16360,13473
5.16622,11678
5.16882,12679
5.17143,14016
5.17403,11615
5.17663,13347
5.17925,11465
5.18185,13627
5.18447,11557
5.18707,12641
5.18968,11620
5.19228,13046
5.19488,11422
5.19750,12563
5.20010,14005
5.20272,12888
5.20532,11608
5.20792,14678
5.21053,10561
5.21313,11815
5.21575,11689
5.21835,10828
5.22095,15688
5.22357,12744
5.22617,14898
5.22878,13229
5.23138,12589
5.23398,12324
5.23660,11525
5.23920,13200
5.24182,10829
5.24442,12140
5.24702,12743
5.24963,13643
5.25223,12746
5.25485,12881
5.25745,13144
5.26005,12424
5.26267,12767
5.26527,14124
5.26788,11985
5.27048,14112
5.27310,13477
5.27570,13176
5.27830,13153
5.28092,13828
5.28352,13191
5.28613,14210
5.28873,13826
5.29133,11289
5.29395,14422
5.29655,13630
5.29917,12618
5.30177,11317
5.30437,11743
5.30698,12611
5.30958,12767
5.31220,13345
5.31480,11918
5.31740,12112
5.32002,14669
5.32262,12994
5.32523,13061
5.32783,13630
5.33043,11816
5.33305,11140
5.33565,12443
5.33827,12395
5.34087,13481
5.34347,11382
5.34608,12464
5.34868,13472
5.35130,13172
5.35390,11664
5.35652,14309
5.35912,13154
5.36172,12558
5.36433,11863
5.36693,13363
5.36955,12340
5.37215,13382
5.37475,12614
5.37737,13627
5.37997,14612
5.38258,13875
5.38518,14033
5.38778,12783
5.39040,13070
5.39300,11804
5.39562,10533
5.39822,13173
5.40082,12060
5.40343,13299
5.40603,13515
5.40865,13956
5.41125,11842
5.41385,12541
5.41647,12971
5.41907,12834
5.42168,12505
5.42428,13744
5.42688,12159
5.42950,13355
5.43210,12918
5.43472,12565
5.43732,13525
5.43993,12436
5.44253,12046
5.44513,12074
5.44775,16673
5.45035,15479
5.45297,18045
5.45557,19449
5.45817,19359
5.46078,20602
5.46338,17404
5.46600,17299
5.46860,15606
5.47120,15483
5.47382,14616
5.47642,13710
5.47903,13850
5.48163,13779
5.48423,13614
5.48685,13122
5.48945,13492
5.49207,13420
5.49467,15173
5.49727,12841
5.49988,13539
5.50248,13786
5.50510,13861
5.50770,14064
5.51030,14242
5.51292,12986
5.51552,14165
5.51813,12793
5.52073,14466
5.52335,14824
5.52595,14970
5.52855,14736
5.53117,13385
5.53377,12543
5.53638,13359
5.53898,14164
5.54158,12626
5.54420,15168
5.54680,14135
5.54942,13546
5.55202,13616
5.55462,14944
5.55723,14368
5.55983,14008
5.56245,13804
5.56505,14610
5.56765,12849
5.57027,11671
5.57287,11673
5.57548,13126
5.57808,14068
5.58068,11820
5.58330,12815
5.58590,14030
5.58852,13587
5.59112,14926
5.59372,12880
5.59633,13712
5.59893,13839
5.60155,13011
5.60415,12762
5.60677,13704
5.60937,14694
5.61197,13886
5.61458,12324
5.61718,13303
5.61980,13948
5.62240,13884
5.62500,14230
5.62762,13698
5.63022,13498
5.63283,13376
5.63543,13943
5.63803,12869
5.64065,12140
5.64325,13237
5.64587,15512
5.64847,12609
5.65107,13828
5.65368,12016
5.65628,15208
5.65890,15466
5.66150,12845
5.66410,11682
5.66672,12513
5.66932,15368
5.67193,13547
5.67453,12406
5.67713,11297
5.67975,14022
5.68235,12889
5.68497,13875
5.68757,13080
5.69018,12628
5.69278,13920
5.69538,14399
5.69800,12674
5.70060,14905
5.70322,15422
5.70582,16308
5.70842,17099
5.71103,18579
5.71363,14851
5.71625,13857
5.71885,13477
5.72145,15088
5.72407,15309
5.72667,14425
5.72928,15511
5.73188,14080
5.73448,14579
5.73710,14912
5.73970,15377
5.74232,12120
5.74492,14949
5.74752,13944
5.75013,13130
5.75273,14432
5.75535,14685
5.75795,14078
5.76055,14116
5.76317,12494
5.76577,14356
5.76838,13578
5.77098,14502
5.77360,13605
5.77620,12700
5.77880,13212
5.78142,13176
5.78402,13636
5.78663,15193
5.78923,12823
5.79183,13267
5.79445,15835
5.79705,14966
5.79967,16143
5.80227,13397
5.80487,13949
5.80748,12238
5.81008,12582
5.81270,14006
5.81530,16178
5.81790,15488
5.82052,17624
5.82312,17684
5.82573,18142
5.82833,16480
5.83093,15084
5.83355,13919
5.83615,13484
5.83877,14825
5.84137,15406
5.84397,15521
5.84658,15976
5.84918,16520
5.85180,13213
5.85440,14090
5.85702,14716
5.85962,13939
5.86222,14192
5.86483,14140
5.86743,15663
5.87005,14281
5.87265,13787
5.87525,14161
5.87787,13719
5.88047,14340
5.88308,14077
5.88568,15181
5.88828,14804
5.89090,13819
5.89350,14321
5.89612,15317
5.89872,14381
5.90132,13173
5.90393,15285
5.90653,15813
5.90915,14493
5.91175,15211
5.91435,15013
5.91697,14869
5.91957,16645
5.92218,16033
5.92478,17186
5.92738,16804
5.93000,16645
5.93260,20013
5.93522,18516
5.93782,17454
5.94043,18577
5.94303,22088
5.94563,19167
5.94825,17842
5.95085,17164
5.95347,16791
5.95607,18424
5.95867,17342
5.96128,16664
5.96388,16729
5.96650,17108
5.96910,15790
5.97170,18191
5.97432,17130
5.97692,17025
5.97953,15684
5.98213,16425
5.98473,16638
5.98735,16646
5.98995,17509
5.99257,18299
5.99517,16725
5.99777,17320
6.00038,17870
6.00298,16966
6.00560,16075
6.00820,13976
6.01080,15054
6.01342,16509
6.01602,15922
6.01863,16825
6.02123,16098
6.02385,15833
6.02645,17498
6.02905,17153
6.03167,14640
6.03427,16270
6.03688,15051
6.03948,16155
6.04208,18055
6.04470,21658
6.04730,27962
6.04992,32868
6.05252,33536
6.05512,35855
6.05773,30315
6.06033,29157
6.06295,28465
6.06555,22949
6.06815,23310
6.07077,23242
6.07337,23002
6.07598,21030
6.07858,19504
6.08118,18600
6.08380,19260
6.08640,18483
6.08902,18349
6.09162,19345
6.09422,17176
6.09683,16859
6.09943,16999
6.10205,19533
6.10465,19115
6.10727,18657
6.10987,19955
6.11247,19994
6.11508,20092
6.11768,19364
6.12030,18209
6.12290,18359
6.12550,21295
6.12812,21814
6.13072,20424
6.13333,20786
6.13593,19198
6.13853,17193
6.14115,18002
6.14375,18452
6.14637,16219
6.14897,17388
6.15157,15306
6.15418,14527
6.15678,16348
6.15940,17603
6.16200,16698
6.16460,15901
6.16722,15235
6.16982,17817
6.17243,16385
6.17503,20923
6.17763,19502
6.18025,18423
6.18285,18992
6.18547,19415
6.18807,18988
6.19068,15613
6.19328,16209
6.19588,16934
6.19850,18024
6.20110,16000
6.20372,17406
6.20632,16456
6.20892,16108
6.21153,13888
6.21413,15970
6.21675,16224
6.21935,15932
6.22195,14678
6.22457,15742
6.22717,14402
6.22978,17527
6.23238,15404
6.23498,16032
6.23760,16116
6.24020,15030
6.24282,16117
6.24542,14909
6.24802,15984
6.25063,15099
6.25323,14685
6.25585,15826
6.25845,14720
6.26105,17159
6.26367,16636
6.26627,15511
6.26888,16914
6.27148,16855
6.27410,14008
6.27670,17834
6.27930,15388
6.28192,16004
6.28452,16507
6.28713,18622
6.28973,16552
6.29233,15636
6.29495,15210
6.29755,15721
6.30017,16676
6.30277,15413
6.30537,15362
6.30798,16032
6.31058,15111
6.31320,17159
6.31580,14590
6.31840,16105
6.32102,15076
6.32362,15125
6.32623,15592
6.32883,15643
6.33143,15878
6.33405,15872
6.33665,16022
6.33927,16284
6.34187,15916
6.34447,16198
6.34708,15930
6.34968,16501
6.35230,17853
6.35490,15576
6.35752,15918
6.36012,15792
6.36272,15288
6.36533,14919
6.36793,15489
6.37055,17304
6.37315,14438
6.37575,17014
6.37837,16419
6.38097,16153
6.38358,18523
6.38618,17346
6.38878,16220
6.39140,15979
6.39400,15635
6.39662,15394
6.39922,15549
6.40182,15840
6.40443,16433
6.40703,17698
6.40965,18359
6.41225,17521
6.41485,20547
6.41747,18739
6.42007,16588
6.42268,16501
6.42528,17261
6.42788,15871
6.43050,15789
6.43310,15788
6.43572,14298
6.43832,14754
6.44093,14726
6.44353,17647
6.44613,16934
6.44875,16141
6.45135,14896
6.45397,14302
6.45657,15715
6.45917,15070
6.46178,17725
6.46438,14643
6.46700,16681
6.46960,16578
6.47220,16537
6.47482,17207
6.47742,16934
6.48003,16957
6.48263,18562
6.48523,15017
6.48785,16291
6.49045,19838
6.49307,17151
6.49567,17495
6.49827,18354
6.50088,20482
6.50348,25617
6.50610,26914
6.50870,23626
6.51130,24170
6.51392,21136
6.51652,18492
6.51913,15663
6.52173,17258
6.52435,18324
6.52695,17102
6.52955,16005
6.53217,16704
6.53477,17994
6.53738,16056
6.53998,18159
6.54258,15985
6.54520,16603
6.54780,17185
6.55042,17096
6.55302,16522
6.55562,15596
6.55823,16719
6.56083,16775
6.56345,17066
6.56605,17828
6.56865,19175
6.57127,17225
6.57387,17242
6.57648,14791
6.57908,17654
6.58168,17161
6.58430,17802
6.58690,25890
6.58952,50654
6.59212,173432
6.59472,610507
6.59733,1886517
6.59993,4768955
6.60255,9383649
6.60515,1.469602E+07
6.60777,2.014223E+07
6.61037,2.614793E+07
6.61297,3.146985E+07
6.61558,3.535542E+07
6.61818,3.663535E+07
6.62080,3.005934E+07
6.62340,1.3342E+07
6.62600,2933516
6.62862,679482
6.63122,291334
6.63383,187856
6.63643,143332
6.63903,124531
6.64165,104820
6.64425,95959
6.64687,89050
6.64947,79998
6.65207,72339
6.65468,67422
6.65728,62348
6.65990,58713
6.66250,56888
6.66510,55123
6.66772,52541
6.67032,51884
6.67293,49250
6.67553,44950
6.67813,45948
6.68075,44365
6.68335,41233
6.68597,42623
6.68857,36146
6.69118,37577
6.69378,38878
6.69638,40071
6.69900,36702
6.70160,34487
6.70422,35462
6.70682,35704
6.70942,32984
6.71203,33297
6.71463,33076
6.71725,32990
6.71985,29473
6.72245,32212
6.72507,30454
6.72767,31227
6.73028,29348
6.73288,29717
6.73548,30838
6.73810,28584
6.74070,30185
6.74332,28819
6.74592,28994
6.74852,28796
6.75113,29653
6.75373,26944
6.75635,30706
6.75895,29520
6.76155,28506
6.76417,31054
6.76677,32168
6.76938,37559
6.77198,38681
6.77460,36146
6.77720,29670
6.77980,27895
6.78242,29063
6.78502,29102
6.78763,28087
6.79023,27399
6.79283,24252
6.79545,28427
6.79805,26067
6.80067,26599
6.80327,25700
6.80587,25834
6.80848,24507
6.81108,26109
6.81370,23408
6.81630,25993
6.81890,25284
6.82152,24026
6.82412,25474
6.82673,22457
6.82933,24593
6.83193,24325
6.83455,22222
6.83715,22003
6.83977,22774
6.84237,23265
6.84497,23202
6.84758,22308
6.85018,23122
6.85280,24693
6.85540,22550
6.85802,24548
6.86062,26134
6.86322,25934
6.86583,28124
6.86843,30379
6.87105,30683
6.87365,28565
6.87625,24419
6.87887,26555
6.88147,26709
6.88408,22279
6.88668,23500
6.88928,24749
6.89190,21508
6.89450,23165
6.89712,21796
6.89972,19528
6.90232,22998
6.90493,20866
6.90753,23321
6.91015,20777
6.91275,23760
6.91535,24115
6.91797,23875
6.92057,21303
6.92318,22160
6.92578,23502
6.92838,25868
6.93100,26446
6.93360,30234
6.93622,35172
6.93882,38281
6.94143,35898
6.94403,31019
6.94663,28484
6.94925,27352
6.95185,24700
6.95447,23862
6.95707,26538
6.95967,26543
6.96228,25102
6.96488,25087
6.96750,26099
6.97010,25558
6.97270,23789
6.97532,23274
6.97792,21805
6.98053,24261
6.98313,21760
6.98573,22704
6.98835,22406
6.99095,22206
6.99357,22675
6.99617,24194
6.99877,22640
7.00138,22452
7.00398,21663
7.00660,24276
7.00920,24738
7.01180,24875
7.01442,22196
7.01702,24994
7.01963,21573
7.02223,22819
7.02485,22487
7.02745,23109
7.03005,22593
7.03267,20487
7.03527,19841
7.03788,22922
7.04048,21803
7.04308,23338
7.04570,24757
7.04830,24938
7.05092,22726
7.05352,22982
7.05612,21686
7.05873,22490
7.06133,25005
7.06395,23691
7.06655,21607
7.06915,22264
7.07177,21540
7.07437,22706
7.07698,23599
7.07958,21442
7.08218,22138
7.08480,20728
7.08740,22499
7.09002,22027
7.09262,21378
7.09522,23111
7.09783,22755
7.10043,22826
7.10305,21866
7.10565,22161
7.10827,23843
7.11087,22184
7.11347,22419
7.11608,20378
7.11868,21114
7.12130,23391
7.12390,20544
7.12650,21220
7.12912,22452
7.13172,23442
7.13433,24168
7.13693,24772
7.13953,31784
7.14215,52299
7.14475,103321
7.14737,219901
7.14997,394615
7.15257,561004
7.15518,583844
7.15778,445427
7.16040,275153
7.16300,155156
7.16560,96201
7.16822,66762
7.17082,53944
7.17343,45990
7.17603,41180
7.17863,41011
7.18125,36609
7.18385,36129
7.18647,33307
7.18907,33271
7.19168,34016
7.19428,33527
7.19688,30066
7.19950,30184
7.20210,29071
7.20472,30276
7.20732,27461
7.20992,29279
7.21253,27907
7.21513,30313
7.21775,29348
7.22035,27135
7.22295,26557
7.22557,25893
7.22817,27412
7.23078,26033
7.23338,27531
7.23598,28343
7.23860,29808
7.24120,25734
7.24382,28623
7.24642,30116
7.24902,26141
7.25163,26897
7.25423,26440
7.25685,25762
7.25945,25882
7.26205,25139
7.26467,25601
7.26727,25845
7.26988,22623
7.27248,25337
7.27510,23956
7.27770,28215
7.28030,26276
7.28292,25901
7.28552,25085
7.28813,24234
7.29073,24832
7.29333,24467
7.29595,22812
7.29855,25800
7.30117,24105
7.30377,24754
7.30637,25745
7.30898,24705
7.31158,22939
7.31420,24205
7.31680,26644
7.31940,26289
7.32202,25377
7.32462,25319
7.32723,26603
7.32983,24796
7.33243,25084
7.33505,26504
7.33765,24252
7.34027,23275
7.34287,24116
7.34547,25002
7.34808,25794
7.35068,24701
7.35330,24160
7.35590,26929
7.35852,24623
7.36112,24343
7.36372,21183
7.36633,23734
7.36893,26534
7.37155,24419
7.37415,25392
7.37675,25843
7.37937,26350
7.38197,24069
7.38458,22844
7.38718,24471
7.38978,25585
7.39240,23975
7.39500,24472
7.39762,23711
7.40022,25996
7.40282,22904
7.40543,24723
7.40803,23674
7.41065,25621
7.41325,24836
7.41585,25929
7.41847,23835
7.42107,26143
7.42368,24147
7.42628,23688
7.42888,24247
7.43150,28188
7.43410,25479
7.43672,23929
7.43932,22871
7.44193,25934
7.44453,24686
7.44713,26396
7.44975,27055
7.45235,24876
7.45497,25211
7.45757,24745
7.46017,25396
7.46278,25922
7.46538,27443
7.46800,26290
7.47060,27406
7.47320,24513
7.47582,25527
7.47842,26783
7.48103,23578
7.48363,25727
7.48623,26330
7.48885,24579
7.49145,25264
7.49407,25208
7.49667,25562
7.49927,24349
7.50188,26358
7.50448,24506
7.50710,24196
7.50970,24226
7.51230,24505
7.51492,30216
7.51752,45734
7.52013,84076
7.52273,155689
7.52535,259336
7.52795,373947
7.53055,438306
7.53317,378218
7.53577,253383
7.53838,157180
7.54098,100283
7.54358,74172
7.54620,58158
7.54880,52628
7.55142,44379
7.55402,43585
7.55662,41945
7.55923,40724
7.56183,39471
7.56445,38299
7.56705,36558
7.56965,34488
7.57227,34906
7.57487,35557
7.57748,36903
7.58008,34812
7.58268,37861
7.58530,38022
7.58790,35708
7.59052,34766
7.59312,32579
7.59572,33327
7.59833,32039
7.60093,32368
7.60355,31682
7.60615,31386
7.60877,28130
7.61137,32592
7.61397,29882
7.61658,31169
7.61918,31032
7.62180,29623
7.62440,28875
7.62700,29291
7.62962,30349
7.63222,30148
7.63483,30926
7.63743,29774
7.64003,30686
7.64265,30838
7.64525,27744
7.64787,30053
7.65047,30584
7.65307,29239
7.65568,29989
7.65828,29738
7.66090,30507
7.66350,32129
7.66610,28153
7.66872,27700
7.67132,30073
7.67393,30443
7.67653,30217
7.67913,30690
7.68175,29791
7.68435,31668
7.68697,28696
7.68957,28224
7.69218,27924
7.69478,28751
7.69738,31203
7.70000,28958
7.70260,26960
7.70522,31862
7.70782,27123
7.71042,32651
7.71303,29884
7.71563,30291
7.71825,30951
7.72085,30709
7.72345,30725
7.72607,29451
7.72867,31924
7.73128,28579
7.73388,30123
7.73648,33199
7.73910,31693
7.74170,30006
7.74432,29069
7.74692,31362
7.74952,29749
7.75213,31349
7.75473,29865
7.75735,29047
7.75995,29990
7.76255,28983
7.76517,28812
7.76777,30881
7.77038,32057
7.77298,31156
7.77560,31509
7.77820,29497
7.78080,31724
7.78342,30843
7.78602,31113
7.78863,30862
7.79123,28698
7.79383,29924
7.79645,30234
7.79905,30739
7.80167,32129
7.80427,29402
7.80687,30721
7.80948,33059
7.81208,30601
7.81470,32606
7.81730,31032
7.81990,31245
7.82252,33328
7.82512,39039
7.82773,37652
7.83033,39418
7.83293,39711
7.83555,39990
7.83815,36347
7.84077,32478
7.84337,34241
7.84597,32748
7.84858,30777
7.85118,35881
7.85380,33610
7.85640,31799
7.85902,33006
7.86162,32536
7.86422,32411
7.86683,31353
7.86943,34260
7.87205,33073
7.87465,31882
7.87725,32696
7.87987,31869
7.88247,30342
7.88508,33201
7.88768,33704
7.89028,33169
7.89290,33553
7.89550,33645
7.89812,33221
7.90072,34642
7.90332,35179
7.90593,34245
7.90853,33508
7.91115,35077
7.91375,34691
7.91635,34822
7.91897,35310
7.92157,33711
7.92418,34208
7.92678,35249
7.92938,34528
7.93200,34060
7.93460,32947
7.93722,33803
7.93982,33464
7.94243,34968
7.94503,34229
7.94763,31712
7.95025,33212
7.95285,35637
7.95547,37241
7.95807,35146
7.96067,33223
7.96328,33074
7.96588,34476
7.96850,35457
7.97110,30948
7.97370,37308
7.97632,31909
7.97892,35119
7.98153,36686
7.98413,33584
7.98673,34880
7.98935,34037
7.99195,35876
7.99457,36089
7.99717,34237
7.99977,33782
8.00238,34327
8.00498,36004
8.00760,34907
8.01020,34373
8.01280,34492
8.01542,35021
8.01802,37368
8.02063,37198
8.02323,35776
8.02585,35122
8.02845,38376
8.03105,39183
8.03367,33402
8.03627,35722
8.03888,35523
8.04148,36035
8.04408,36567
8.04670,38852
8.04930,37844
8.05192,36609
8.05452,41527
8.05712,60088
8.05973,157740
8.06233,542605
8.06495,1690160
8.06755,3967098
8.07015,7858094
8.07277,1.248649E+07
8.07537,1.651275E+07
8.07798,1.827502E+07
8.08058,1.606434E+07
8.08318,1.066294E+07
8.08580,5378101
8.08840,2520991
8.09102,1306476
8.09362,881243
8.09622,650352
8.09883,510364
8.10143,405445
8.10405,328612
8.10665,293627
8.10927,261959
8.11187,234655
8.11447,199642
8.11708,184068
8.11968,162031
8.12230,154470
8.12490,139975
8.12750,137733
8.13012,126625
8.13272,119398
8.13533,112358
8.13793,104995
8.14053,102247
8.14315,96593
8.14575,91103
8.14837,85678
8.15097,83039
8.15357,83451
8.15618,76116
8.15878,74344
8.16140,74351
8.16400,73685
8.16660,67468
8.16922,71941
8.17182,71597
8.17443,67338
8.17703,66949
8.17963,66921
8.18225,66031
8.18485,63336
8.18747,62148
8.19007,59948
8.19268,59760
8.19528,60767
8.19788,56296
8.20050,58975
8.20310,58978
8.20572,56285
8.20832,56226
8.21092,55513
8.21353,55508
8.21613,61364
8.21875,58553
8.22135,56441
8.22395,54492
8.22657,56609
8.22917,56818
8.23178,54652
8.23438,51903
8.23698,52025
8.23960,50632
8.24220,53411
8.24482,54419
8.24742,53849
8.25002,56098
8.25263,51559
8.25523,50608
8.25785,52209
8.26045,52388
8.26305,52039
8.26567,51018
8.26827,50439
8.27088,50248
8.27348,48534
8.27610,52697
8.27870,52006
8.28130,51256
8.28392,51131
8.28652,53449
8.28913,52531
8.29173,51293
8.29433,50319
8.29695,52727
8.29955,53177
8.30217,54361
8.30477,57560
8.30737,53574
8.30998,53872
8.31258,53051
8.31520,53666
8.31780,48441
8.32040,54301
8.32302,55715
8.32562,53441
8.32823,50600
8.33083,51471
8.33343,49564
8.33605,50184
8.33865,53940
8.34127,53856
8.34387,55289
8.34647,53896
8.34908,52894
8.35168,52367
8.35430,49852
8.35690,52399
8.35952,51961
8.36212,54760
8.36472,50884
8.36733,51413
8.36993,54049
8.37255,50362
8.37515,52234
8.37775,52811
8.38037,57165
8.38297,55114
8.38558,54585
8.38818,55641
8.39078,51586
8.39340,55062
8.39600,55376
8.39862,53792
8.40122,55247
8.40382,54641
8.40643,55834
8.40903,56358
8.41165,57871
8.41425,55580
8.41685,51517
8.41947,58434
8.42207,56795
8.42468,58174
8.42728,56889
8.42988,60073
8.43250,64672
8.43510,64549
8.43772,60235
8.44032,58693
8.44293,56861
8.44553,58189
8.44813,58065
8.45075,59848
8.45335,60809
8.45597,59930
8.45857,57346
8.46117,57060
8.46378,59732
8.46638,62815
8.46900,58353
8.47160,57521
8.47420,63819
8.47682,67948
8.47942,66261
8.48203,64371
8.48463,65341
8.48723,65628
8.48985,65145
8.49245,62063
8.49507,63804
8.49767,64361
8.50027,63634
8.50288,63379
8.50548,69913
8.50810,79287
8.51070,84257
8.51330,87464
8.51592,85302
8.51852,77174
8.52113,72922
8.52373,69838
8.52635,68583
8.52895,69019
8.53155,67669
8.53417,68096
8.53677,70059
8.53938,69332
8.54198,71366
8.54458,68310
8.54720,71086
8.54980,71286
8.55242,70549
8.55502,69021
8.55762,69314
8.56023,70942
8.56283,69355
8.56545,70249
8.56805,70311
8.57065,67144
8.57327,74327
8.57587,73527
8.57848,72702
8.58108,74464
8.58368,70487
8.58630,76706
8.58890,74365
8.59152,77131
8.59412,73227
8.59672,76302
8.59933,78047
8.60193,77677
8.60455,78225
8.60715,75600
8.60977,75648
8.61237,76014
8.61497,78403
8.61758,76206
8.62018,77153
8.62280,77213
8.62540,80822
8.62800,77128
8.63062,81041
8.63322,78404
8.63583,76613
8.63843,84497
8.64103,81936
8.64365,84697
8.64625,82481
8.64887,79165
8.65147,77701
8.65407,83164
8.65668,77960
8.65928,81502
8.66190,83388
8.66450,84339
8.66710,84358
8.66972,84028
8.67232,88243
8.67493,87038
8.67753,85063
8.68013,85427
8.68275,87798
8.68535,88696
8.68797,86317
8.69057,89953
8.69318,90633
8.69578,95669
8.69838,93402
8.70100,92341
8.70360,94610
8.70622,93862
8.70882,92562
8.71142,98860
8.71403,100971
8.71663,102811
8.71925,103719
8.72185,104456
8.72445,101232
8.72707,101548
8.72967,101320
8.73228,108228
8.73488,102716
8.73748,101503
8.74010,102332
8.74270,102066
8.74532,94475
8.74792,101131
8.75052,101147
8.75313,99063
8.75573,100221
8.75835,100028
8.76095,105849
8.76355,100422
8.76617,100574
8.76877,100651
8.77138,101452
8.77398,104559
8.77660,98421
8.77920,102459
8.78180,100517
8.78442,104113
8.78702,98966
8.78963,108079
8.79223,102158
8.79483,101924
8.79745,103607
8.80005,104877
8.80267,107732
8.80527,106407
8.80787,101269
8.81048,100544
8.81308,108290
8.81570,110692
8.81830,104975
8.82090,107484
8.82352,107258
8.82612,108123
8.82873,107834
8.83133,102436
8.83393,107459
8.83655,106569
8.83915,107738
8.84177,107156
8.84437,111250
8.84697,112824
8.84958,107319
8.85218,107666
8.85480,112557
8.85740,113441
8.86002,116229
8.86262,111577
8.86522,107406
8.86783,112655
8.87043,109294
8.87305,111068
8.87565,115250
8.87825,116269
8.88087,111571
8.88347,112661
8.88608,111802
8.88868,114015
8.89128,113418
8.89390,112778
8.89650,113720
8.89912,116724
8.90172,112631
8.90432,114213
8.90693,114698
8.90953,116017
8.91215,112984
8.91475,112427
8.91735,119403
8.91997,119075
8.92257,120835
8.92518,122288
8.92778,121039
8.93038,122997
8.93300,120811
8.93560,127459
8.93822,118872
8.94082,119265
8.94343,123054
8.94603,118408
8.94863,121340
8.95125,120038
8.95385,117624
8.95647,115807
8.95907,118809
8.96167,119560
8.96428,119745
8.96688,117280
8.96950,121126
8.97210,119617
8.97470,118396
8.97732,115958
8.97992,123801
8.98253,123975
8.98513,123378
8.98773,121344
8.99035,121144
8.99295,122012
8.99557,120916
8.99817,120584
9.00077,119987
9.00338,123363
9.00598,124280
9.00860,122538
9.01120,124270
9.01380,124651
9.01642,122017
9.01902,128754
9.02163,120687
9.02423,124041
9.02685,123561
9.02945,126165
9.03205,119893
9.03467,121997
9.03727,122611
9.03988,124790
9.04248,116209
9.04508,120696
9.04770,120332
9.05030,126959
9.05292,125199
9.05552,127915
9.05812,128653
9.06073,127801
9.06333,121136
9.06595,125579
9.06855,124033
9.07115,125419
9.07377,124476
9.07637,125251
9.07898,127424
9.08158,128637
9.08418,123721
9.08680,125503
9.08940,126081
9.09202,124584
9.09462,125457
9.09722,123367
9.09983,127680
9.10243,124543
9.10505,118829
9.10765,127719
9.11027,121944
9.11287,128543
9.11547,125255
9.11808,125941
9.12068,130055
9.12330,134417
9.12590,129298
9.12850,131001
9.13112,128474
9.13372,133164
9.13633,132394
9.13893,128510
9.14153,127608
9.14415,127247
9.14675,123984
9.14937,124381
9.15197,124464
9.15457,122614
9.15718,123304
9.15978,124427
9.16240,126851
9.16500,123986
9.16760,128302
9.17022,129868
9.17282,125612
9.17543,128080
9.17803,126300
9.18063,128337
9.18325,127852
9.18585,128061
9.18847,126602
9.19107,132257
9.19368,128019
9.19628,130356
9.19888,133727
9.20150,136247
9.20410,133762
9.20672,133948
9.20932,131977
9.21192,127994
9.21453,130296
9.21713,133688
9.21975,128067
9.22235,128524
9.22495,125017
9.22757,127630
9.23017,122119
9.23278,126652
9.23538,126597
9.23798,122780
9.24060,129164
9.24320,126062
9.24582,125825
9.24842,128817
9.25102,127266
9.25363,128103
9.25623,125759
9.25885,130345
9.26145,125515
9.26405,129172
9.26667,123203
9.26927,127895
9.27188,126612
9.27448,127090
9.27710,127091
9.27970,127651
9.28230,125094
9.28492,129255
9.28752,128588
9.29013,128035
9.29273,124444
9.29533,124378
9.29795,123619
9.30055,128645
9.30317,126500
9.30577,124958
9.30837,125030
9.31098,127124
9.31358,127061
9.31620,128229
9.31880,123174
9.32140,125443
9.32402,126236
9.32662,131125
9.32923,128979
9.33183,131002
9.33443,129350
9.33705,128072
9.33965,124452
9.34227,122545
9.34487,131280
9.34747,123514
9.35008,125958
9.35268,126916
9.35530,126055
9.35790,125478
9.36052,125441
9.36312,127224
9.36572,124383
9.36833,127521
9.37093,131429
9.37355,129259
9.37615,129114
9.37875,124925
9.38137,127149
9.38397,124370
9.38658,128613
9.38918,132704
9.39178,126160
9.39440,125084
9.39700,121854
9.39962,126455
9.40222,125349
9.40482,125834
9.40743,125958
9.41003,129024
9.41265,127192
9.41525,127757
9.41785,124574
9.42047,120303
9.42307,126650
9.42568,129531
9.42828,125745
9.43088,122034
9.43350,123974
9.43610,126406
9.43872,125348
9.44132,125043
9.44393,129549
9.44653,125505
9.44913,126094
9.45175,126720
9.45435,126557
9.45697,130021
9.45957,127913
9.46217,131202
9.46478,130608
9.46738,131179
9.47000,125663
9.47260,124805
9.47520,129101
9.47782,133488
9.48042,126619
9.48303,124176
9.48563,125804
9.48823,122640
9.49085,126319
9.49345,125484
9.49607,125903
9.49867,123391
9.50127,126500
9.50388,128584
9.50648,124273
9.50910,126117
9.51170,123565
9.51430,125629
9.51692,127625
9.51952,122016
9.52213,129082
9.52473,124640
9.52735,124103
9.52995,126295
9.53255,126734
9.53517,123604
9.53777,124404
9.54038,128361
9.54298,124539
9.54558,126545
9.54820,125701
9.55080,131207
9.55342,125429
9.55602,123744
9.55862,124097
9.56123,128510
9.56383,125888
9.56645,127783
9.56905,127731
9.57165,126417
9.57427,125032
9.57687,126812
9.57948,124452
9.58208,126820
9.58468,129858
9.58730,128025
9.58990,126779
9.59252,125066
9.59512,126134
9.59772,126385
9.60033,130204
9.60293,123167
9.60555,124748
9.60815,123852
9.61077,125909
9.61337,130843
9.61597,129600
9.61858,124842
9.62118,129145
9.62380,126506
9.62640,127281
9.62900,124614
9.63162,126060
9.63422,125374
9.63683,129662
9.63943,125749
9.64203,126969
9.64465,123859
9.64725,127242
9.64987,128005
9.65247,128479
9.65507,130009
9.65768,128102
9.66028,127852
9.66290,127872
9.66550,125574
9.66810,127871
9.67072,128900
9.67332,127241
9.67593,130365
9.67853,124718
9.68113,125362
9.68375,125333
9.68635,124770
9.68897,125471
9.69157,126912
9.69418,127243
9.69678,130198
9.69938,123920
9.70200,127480
9.70460,127749
9.70722,128989
9.70982,123153
9.71242,124651
9.71503,128767
9.71763,126454
9.72025,129246
9.72285,128997
9.72545,132042
9.72807,126650
9.73067,125351
9.73328,129144
9.73588,127506
9.73848,126736
9.74110,122108
9.74370,125720
9.74632,126079
9.74892,129937
9.75152,127401
9.75413,125548
9.75673,124436
9.75935,126269
9.76195,123721
9.76455,129060
9.76717,129731
9.76977,129830
9.77238,129138
9.77498,125474
9.77760,125274
9.78020,126856
9.78280,129009
9.78542,129991
9.78802,126677
9.79063,122526
9.79323,129915
9.79583,128277
9.79845,125276
9.80105,130725
9.80367,126781
9.80627,129037
9.80887,125471
9.81148,128850
9.81408,132527
9.81670,123114
9.81930,129762
9.82190,130285
9.82452,129376
9.82712,132443
9.82973,128315
9.83233,128235
9.83493,125984
9.83755,121910
9.84015,125781
9.84277,127106
9.84537,126716
9.84797,125781
9.85058,128827
9.85318,127643
9.85580,128443
9.85840,127162
9.86102,124210
9.86362,128042
9.86622,130642
9.86883,128681
9.87143,123047
9.87405,124306
9.87665,126605
9.87925,125064
9.88187,128061
9.88447,123272
9.88708,127101
9.88968,127393
9.89228,128591
9.89490,133195
9.89750,123209
9.90012,130665
9.90272,124639
9.90532,129252
9.90793,129772
9.91053,124604
9.91315,123896
9.91575,128621
9.91835,121621
9.92097,129012
9.92357,128154
9.92618,127840
9.92878,127224
9.93138,124480
9.93400,129301
9.93660,128582
9.93922,128280
9.94182,132114
9.94443,126267
9.94703,126566
9.94963,125990
9.95225,130233
9.95485,128261
9.95747,127465
9.96007,128868
9.96267,128303
9.96528,124941
9.96788,120305
9.97050,126443
9.97310,125776
9.97570,126341
9.97832,128456
9.98092,124306
9.98353,128065
9.98613,130853
9.98873,124251
9.99135,127539
9.99395,126267
9.99657,126397
9.99917,127857
10.00177,126426
10.00438,126932
10.00698,129064
10.00960,124720
10.01220,128302
10.01480,130389
10.01742,130260
10.02002,125547
10.02263,122493
10.02523,129697
10.02785,125399
10.03045,129684
10.03305,129451
10.03567,128047
10.03827,131089
10.04088,128025
10.04348,130267
10.04608,127841
10.04870,125117
10.05130,126088
10.05392,128678
10.05652,129707
10.05912,133372
10.06173,129904
10.06433,126523
10.06695,127251
10.06955,131432
10.07215,123443
10.07477,123309
10.07737,127427
10.07998,129264
10.08258,128476
10.08518,129966
10.08780,125283
10.09040,127732
10.09302,128679
10.09562,127604
10.09822,126787
10.10083,132344
10.10343,123571
10.10605,130905
10.10865,127209
10.11127,127000
10.11387,131482
10.11647,126324
10.11908,123102
10.12168,128957
10.12430,129498
10.12690,130718
10.12950,125664
10.13212,122257
10.13472,130661
10.13733,127794
10.13993,128410
10.14253,131099
10.14515,130810
10.14775,129143
10.15037,124589
10.15297,125514
10.15557,123526
10.15818,123931
10.16078,126838
10.16340,130332
10.16600,128751
10.16860,124480
10.17122,125574
10.17382,130379
10.17643,129976
10.17903,124906
10.18163,130130
10.18425,125420
10.18685,128113
10.18947,128771
10.19207,126166
10.19468,131116
10.19728,128730
10.19988,131433
10.20250,124666
10.20510,133791
10.20772,132789
10.21032,128840
10.21292,129623
10.21553,130109
10.21813,126916
10.22075,126223
10.22335,132413
10.22595,125533
10.22857,130449
10.23117,132802
10.23378,130571
10.23638,129099
10.23898,132715
10.24160,125406
10.24420,125159
10.24682,129799
10.24942,127494
10.25202,126517
10.25463,128591
10.25723,128775
10.25985,126537
10.26245,129980
10.26505,125179
10.26767,124041
10.27027,125553
10.27288,127277
10.27548,128971
10.27810,132682
10.28070,127160
10.28330,131425
10.28592,125353
10.28852,125119
10.29113,126117
10.29373,124073
10.29633,126660
10.29895,130810
10.30155,127844
10.30417,132996
10.30677,125961
10.30937,129425
10.31198,127393
10.31458,127277
10.31720,125359
10.31980,129017
10.32240,126692
10.32502,125984
10.32762,129804
10.33023,124052
10.33283,127294
10.33543,129976
10.33805,128594
10.34065,126435
10.34327,129377
10.34587,129650
10.34847,127499
10.35108,132467
10.35368,128455
10.35630,128205
10.35890,125043
10.36152,127650
10.36412,129153
10.36672,129166
10.36933,123585
10.37193,126860
10.37455,124541
10.37715,131485
10.37975,129823
10.38237,127699
10.38497,122126
10.38758,130557
10.39018,124723
10.39278,125680
10.39540,129061
10.39800,125334
10.40062,129943
10.40322,127450
10.40582,127994
10.40843,126345
10.41103,130397
10.41365,130656
10.41625,129362
10.41885,125666
10.42147,127833
10.42407,127886
10.42668,125480
10.42928,130002
10.43188,124466
10.43450,125354
10.43710,126260
10.43972,133056
10.44232,128337
10.44493,130675
10.44753,122599
10.45013,126667
10.45275,123750
10.45535,127688
10.45797,128402
10.46057,125898
10.46317,128496
10.46578,129114
10.46838,126195
10.47100,129939
10.47360,127844
10.47620,125817
10.47882,127286
10.48142,124479
10.48403,123562
10.48663,125181
10.48923,125874
10.49185,125021
10.49445,129791
10.49707,127297
10.49967,125864
10.50227,127394
10.50488,127993
10.50748,127133
10.51010,128686
10.51270,128725
10.51530,127538
10.51792,127635
10.52052,127573
10.52313,131230
10.52573,126508
10.52835,126632
10.53095,128422
10.53355,124898
10.53617,129055
10.53877,127038
10.54138,130420
10.54398,129582
10.54658,127844
10.54920,130963
10.55180,123932
10.55442,125345
10.55702,129917
10.55962,122136
10.56223,124493
10.56483,124523
10.56745,125473
10.57005,128221
10.57265,129300
10.57527,125472
10.57787,129274
10.58048,126210
10.58308,126546
10.58568,132273
10.58830,128239
10.59090,130133
10.59352,128866
10.59612,128882
10.59872,125270
10.60133,127379
10.60393,127128
10.60655,131365
10.60915,128315
10.61177,132445
10.61437,130763
10.61697,127593
10.61958,128979
10.62218,127029
10.62480,130298
10.62740,126897
10.63000,131684
10.63262,130090
10.63522,128489
10.63783,126561
10.64043,127674
10.64303,124886
10.64565,122953
10.64825,128951
10.65087,127503
10.65347,131057
10.65607,131481
10.65868,132282
10.66128,128333
