D:\data\overige2021\rk\20200201rk_cocacase28x\B039760.D Mon Feb 01 16:58:15 2021
Start of data points
1.58992,11900
1.59252,11682
1.59512,13659
1.59773,12423
1.60033,12624
1.60295,11662
1.60555,11583
1.60815,12461
1.61077,11856
1.61337,13108
1.61598,10383
1.61858,10601
1.62118,12145
1.62380,12513
1.62640,12322
1.62902,11205
1.63162,11057
1.63423,11132
1.63683,10038
1.63943,11170
1.64205,11035
1.64465,10281
1.64727,9559
1.64987,11203
1.65247,10577
1.65508,12342
1.65768,11195
1.66030,11577
1.66290,11276
1.66550,9399
1.66812,9373
1.67072,11066
1.67333,10537
1.67593,10285
1.67853,9851
1.68115,8245
1.68375,9432
1.68637,7808
1.68897,9885
1.69157,9834
1.69418,9020
1.69678,9352
1.69940,9422
1.70200,10672
1.70460,8642
1.70722,9219
1.70982,10115
1.71243,10016
1.71503,8789
1.71765,9434
1.72025,8204
1.72285,9211
1.72547,9991
1.72807,8231
1.73068,7903
1.73328,8215
1.73588,8357
1.73850,7093
1.74110,8642
1.74372,9303
1.74632,8133
1.74892,7783
1.75153,7425
1.75413,9166
1.75675,7723
1.75935,7988
1.76195,7192
1.76457,8533
1.76717,7695
1.76978,8679
1.77238,8096
1.77498,7795
1.77760,8321
1.78020,8087
1.78282,6481
1.78542,7399
1.78802,8012
1.79063,6483
1.79323,8072
1.79585,7771
1.79845,7892
1.80107,7594
1.80367,7737
1.80627,7227
1.80888,6618
1.81148,6890
1.81410,6644
1.81670,7502
1.81930,8697
1.82192,7668
1.82452,6565
1.82713,5877
1.82973,6274
1.83233,7733
1.83495,6475
1.83755,6109
1.84017,5989
1.84277,7221
1.84537,6282
1.84798,5372
1.85058,7299
1.85320,6375
1.85580,6309
1.85840,6398
1.86102,6192
1.86362,5792
1.86623,7087
1.86883,6628
1.87143,6653
1.87405,5488
1.87665,6319
1.87927,6752
1.88187,7019
1.88448,7023
1.88708,6217
1.88968,6220
1.89230,6529
1.89490,7089
1.89752,6209
1.90012,6620
1.90272,6291
1.90533,5972
1.90793,5890
1.91055,6002
1.91315,6099
1.91575,5020
1.91837,6067
1.92097,5885
1.92358,6149
1.92618,5327
1.92878,5414
1.93140,6809
1.93400,6040
1.93662,6014
1.93922,5301
1.94182,6473
1.94443,5235
1.94703,6148
1.94965,6264
1.95225,6040
1.95485,4562
1.95747,6074
1.96007,5883
1.96268,6034
1.96528,5858
1.96790,6042
1.97050,5660
1.97310,5736
1.97572,6878
1.97832,6541
1.98093,4822
1.98353,6990
1.98613,6165
1.98875,5859
1.99135,5448
1.99397,5669
1.99657,4933
1.99917,5665
2.00178,6318
2.00438,5171
2.00700,6082
2.00960,6514
2.01220,6527
2.01482,5513
2.01742,4629
2.02003,6451
2.02263,5593
2.02523,4759
2.02785,6972
2.03045,4741
2.03307,5648
2.03567,5710
2.03827,6541
2.04088,7657
2.04348,9828
2.04610,9389
2.04870,10706
2.05132,11582
2.05392,10381
2.05652,12076
2.05913,10592
2.06173,9380
2.06435,9385
2.06695,10804
2.06955,8234
2.07217,9140
2.07477,7039
2.07738,6678
2.07998,8671
2.08258,7428
2.08520,8457
2.08780,6919
2.09042,7776
2.09302,6915
2.09562,7814
2.09823,6919
2.10083,6131
2.10345,6659
2.10605,7071
2.10865,7050
2.11127,6363
2.11387,7175
2.11648,7504
2.11908,5905
2.12168,6776
2.12430,7283
2.12690,6217
2.12952,6620
2.13212,7915
2.13473,4742
2.13733,6172
2.13993,7437
2.14255,5734
2.14515,5403
2.14777,6695
2.15037,6589
2.15297,5490
2.15558,5588
2.15818,5221
2.16080,6169
2.16340,6463
2.16600,5513
2.16862,5727
2.17122,5994
2.17383,5141
2.17643,5285
2.17903,6738
2.18165,6103
2.18425,7084
2.18687,6515
2.18947,4656
2.19207,6864
2.19468,5339
2.19728,5652
2.19990,5288
2.20250,6002
2.20510,5191
2.20772,5874
2.21032,5333
2.21293,4630
2.21553,5357
2.21815,5294
2.22075,6381
2.22335,5604
2.22597,5289
2.22857,5715
2.23118,4435
2.23378,4333
2.23638,5077
2.23900,4717
2.24160,5822
2.24422,5353
2.24682,5081
2.24942,5114
2.25203,4941
2.25463,6135
2.25725,4759
2.25985,5318
2.26245,4817
2.26507,4997
2.26767,3958
2.27028,5531
2.27288,6564
2.27548,5418
2.27810,5971
2.28070,4934
2.28332,5017
2.28592,5933
2.28852,5825
2.29113,5337
2.29373,5130
2.29635,5024
2.29895,5904
2.30157,6994
2.30417,6303
2.30677,4787
2.30938,5621
2.31198,5913
2.31460,5311
2.31720,5856
2.31980,4458
2.32242,4608
2.32502,4858
2.32763,4550
2.33023,6112
2.33283,5454
2.33545,4557
2.33805,4178
2.34067,4757
2.34327,5241
2.34587,5808
2.34848,5152
2.35108,5445
2.35370,5117
2.35630,5741
2.35890,4849
2.36152,6046
2.36412,5953
2.36673,5796
2.36933,5367
2.37193,4981
2.37455,5684
2.37715,5439
2.37977,5776
2.38237,4453
2.38498,6028
2.38758,5744
2.39018,4857
2.39280,5572
2.39540,5723
2.39802,5768
2.40062,5333
2.40322,5671
2.40583,4597
2.40843,5299
2.41105,4927
2.41365,5228
2.41625,4025
2.41887,5589
2.42147,5049
2.42408,5798
2.42668,5326
2.42928,5085
2.43190,5123
2.43450,5493
2.43712,4584
2.43972,4636
2.44232,4499
2.44493,6718
2.44753,4990
2.45015,5877
2.45275,6103
2.45535,5804
2.45797,5159
2.46057,6341
2.46318,8372
2.46578,9433
2.46840,10088
2.47100,9038
2.47360,9164
2.47622,8096
2.47882,7299
2.48143,7570
2.48403,7654
2.48663,7959
2.48925,6318
2.49185,7271
2.49447,6420
2.49707,5979
2.49967,7238
2.50228,6308
2.50488,7244
2.50750,5828
2.51010,4607
2.51270,5184
2.51532,6401
2.51792,6826
2.52053,6122
2.52313,5238
2.52573,6899
2.52835,6840
2.53095,6922
2.53357,4838
2.53617,6162
2.53877,5329
2.54138,6343
2.54398,5135
2.54660,5170
2.54920,5244
2.55182,5634
2.55442,5221
2.55702,5806
2.55963,4652
2.56223,5817
2.56485,5339
2.56745,4922
2.57005,5788
2.57267,3891
2.57527,4821
2.57788,5397
2.58048,5692
2.58308,5398
2.58570,6169
2.58830,5052
2.59092,4951
2.59352,6253
2.59612,6393
2.59873,6455
2.60133,5470
2.60395,6660
2.60655,5136
2.60915,5919
2.61177,5341
2.61437,4534
2.61698,4429
2.61958,5772
2.62218,5291
2.62480,5312
2.62740,5081
2.63002,5167
2.63262,5672
2.63523,5447
2.63783,4101
2.64043,4714
2.64305,5758
2.64565,5272
2.64827,4800
2.65087,5444
2.65347,5734
2.65608,5202
2.65868,4014
2.66130,5141
2.66390,4293
2.66650,6329
2.66912,6140
2.67172,5459
2.67433,4446
2.67693,5022
2.67953,5986
2.68215,5213
2.68475,5116
2.68737,3933
2.68997,5145
2.69257,4484
2.69518,5675
2.69778,4089
2.70040,5527
2.70300,4451
2.70560,4887
2.70822,4921
2.71082,4784
2.71343,4972
2.71603,3736
2.71865,4809
2.72125,5781
2.72385,4899
2.72647,3979
2.72907,5126
2.73168,5135
2.73428,5507
2.73688,4897
2.73950,4540
2.74210,5056
2.74472,5502
2.74732,5065
2.74992,4566
2.75253,3779
2.75513,4401
2.75775,4785
2.76035,5379
2.76295,5944
2.76557,5853
2.76817,6615
2.77078,4796
2.77338,4875
2.77598,4207
2.77860,5086
2.78120,5064
2.78382,5743
2.78642,5145
2.78902,5280
2.79163,4710
2.79423,4930
2.79685,5070
2.79945,5913
2.80207,5259
2.80467,4550
2.80727,5358
2.80988,5234
2.81248,5020
2.81510,5170
2.81770,5415
2.82030,3757
2.82292,4995
2.82552,4616
2.82813,4517
2.83073,4484
2.83333,4358
2.83595,4333
2.83855,5757
2.84117,4393
2.84377,5537
2.84637,4699
2.84898,5137
2.85158,4570
2.85420,4268
2.85680,4157
2.85940,5631
2.86202,6319
2.86462,4304
2.86723,4733
2.86983,4747
2.87243,5458
2.87505,4467
2.87765,5476
2.88027,4466
2.88287,5242
2.88548,4893
2.88808,3172
2.89068,5620
2.89330,4681
2.89590,5329
2.89852,5548
2.90112,4142
2.90372,4797
2.90633,4756
2.90893,5181
2.91155,5073
2.91415,5381
2.91675,4714
2.91937,4385
2.92197,4942
2.92458,6056
2.92718,5207
2.92978,6310
2.93240,6130
2.93500,5548
2.93762,4688
2.94022,6610
2.94282,5978
2.94543,4356
2.94803,5008
2.95065,4902
2.95325,4319
2.95585,5180
2.95847,4767
2.96107,4227
2.96368,3174
2.96628,4473
2.96890,4918
2.97150,5822
2.97410,5195
2.97672,4702
2.97932,5291
2.98193,4358
2.98453,5542
2.98713,4877
2.98975,4827
2.99235,3914
2.99497,4589
2.99757,3415
3.00017,6180
3.00278,5180
3.00538,3445
3.00800,4581
3.01060,4626
3.01320,5299
3.01582,4915
3.01842,4891
3.02103,3496
3.02363,4841
3.02623,4733
3.02885,4252
3.03145,5463
3.03407,5915
3.03667,4087
3.03927,4712
3.04188,4783
3.04448,5721
3.04710,5180
3.04970,3485
3.05232,5794
3.05492,5128
3.05752,5026
3.06013,4768
3.06273,4778
3.06535,4768
3.06795,5762
3.07055,6048
3.07317,4805
3.07577,4582
3.07838,4992
3.08098,5198
3.08358,4160
3.08620,6196
3.08880,4655
3.09142,4357
3.09402,5278
3.09662,4241
3.09923,5196
3.10183,4909
3.10445,6352
3.10705,4303
3.10965,4130
3.11227,5085
3.11487,5870
3.11748,4132
3.12008,5727
3.12268,5040
3.12530,5579
3.12790,6851
3.13052,7997
3.13312,8731
3.13573,11228
3.13833,11795
3.14093,13276
3.14355,12788
3.14615,13337
3.14877,15299
3.15137,12252
3.15397,13383
3.15658,13353
3.15918,12664
3.16180,11106
3.16440,11292
3.16700,12055
3.16962,10737
3.17222,11586
3.17483,12238
3.17743,11112
3.18003,10829
3.18265,9095
3.18525,10907
3.18787,10625
3.19047,9894
3.19307,9178
3.19568,8547
3.19828,9489
3.20090,9889
3.20350,8967
3.20610,8444
3.20872,8782
3.21132,8102
3.21393,8818
3.21653,8980
3.21915,9641
3.22175,9473
3.22435,9669
3.22697,8620
3.22957,7499
3.23218,8234
3.23478,8419
3.23738,8081
3.24000,5861
3.24260,6390
3.24522,8800
3.24782,7984
3.25042,7053
3.25303,6351
3.25563,6494
3.25825,8168
3.26085,8004
3.26345,6397
3.26607,7767
3.26867,6902
3.27128,5229
3.27388,7726
3.27648,6484
3.27910,7379
3.28170,7699
3.28432,5934
3.28692,6097
3.28952,6541
3.29213,7284
3.29473,7257
3.29735,8142
3.29995,7439
3.30257,5643
3.30517,7383
3.30777,6342
3.31038,7093
3.31298,6640
3.31560,5410
3.31820,5892
3.32080,7304
3.32342,7191
3.32602,7917
3.32863,5879
3.33123,6353
3.33383,6706
3.33645,5493
3.33905,6306
3.34167,6421
3.34427,6629
3.34687,6110
3.34948,6416
3.35208,6437
3.35470,6334
3.35730,6213
3.35990,5992
3.36252,5861
3.36512,6605
3.36773,5987
3.37033,6958
3.37293,6227
3.37555,4899
3.37815,5809
3.38077,6430
3.38337,6742
3.38598,6188
3.38858,5134
3.39118,6525
3.39380,6332
3.39640,6771
3.39902,7037
3.40162,7237
3.40422,7656
3.40683,7495
3.40943,8992
3.41205,9471
3.41465,7028
3.41725,7667
3.41987,8619
3.42247,7770
3.42508,7377
3.42768,6203
3.43028,7643
3.43290,7067
3.43550,6949
3.43812,6608
3.44072,6814
3.44332,6671
3.44593,6073
3.44853,6091
3.45115,6261
3.45375,6836
3.45635,5733
3.45897,5846
3.46157,6327
3.46418,7194
3.46678,6569
3.46940,6792
3.47200,7078
3.47460,7014
3.47722,5589
3.47982,6546
3.48243,6752
3.48503,5738
3.48763,5568
3.49025,6501
3.49285,5237
3.49547,5553
3.49807,6773
3.50067,7219
3.50328,7499
3.50588,5998
3.50850,6011
3.51110,8205
3.51370,9649
3.51632,17534
3.51892,30506
3.52153,43150
3.52413,53488
3.52673,53341
3.52935,45918
3.53195,37591
3.53457,28280
3.53717,23134
3.53977,17733
3.54238,16332
3.54498,15293
3.54760,14167
3.55020,12193
3.55282,12066
3.55542,12023
3.55802,10926
3.56063,9736
3.56323,11224
3.56585,9888
3.56845,11619
3.57105,10592
3.57367,10606
3.57627,9174
3.57888,9925
3.58148,11087
3.58408,10571
3.58670,10805
3.58930,10079
3.59192,10936
3.59452,10167
3.59712,13117
3.59973,13478
3.60233,10891
3.60495,8956
3.60755,10771
3.61015,10659
3.61277,11053
3.61537,9919
3.61798,10351
3.62058,9407
3.62318,10741
3.62580,10429
3.62840,11523
3.63102,10323
3.63362,11291
3.63623,10689
3.63883,14602
3.64143,13782
3.64405,14511
3.64665,14297
3.64927,14624
3.65187,12300
3.65447,11647
3.65708,10965
3.65968,10914
3.66230,10317
3.66490,9516
3.66750,10268
3.67012,9293
3.67272,10523
3.67533,11547
3.67793,10081
3.68053,8930
3.68315,10316
3.68575,9999
3.68837,10958
3.69097,9354
3.69357,10244
3.69618,11172
3.69878,9459
3.70140,10293
3.70400,8991
3.70660,9476
3.70922,8985
3.71182,9206
3.71443,8743
3.71703,9934
3.71965,9614
3.72225,8043
3.72485,8423
3.72747,9431
3.73007,10091
3.73268,9330
3.73528,12457
3.73788,9894
3.74050,9628
3.74310,10690
3.74572,10312
3.74832,9448
3.75092,9013
3.75353,9130
3.75613,9220
3.75875,9886
3.76135,9526
3.76395,10278
3.76657,8479
3.76917,9441
3.77178,8969
3.77438,9222
3.77698,9476
3.77960,10405
3.78220,8130
3.78482,10195
3.78742,9075
3.79002,8890
3.79263,7961
3.79523,7711
3.79785,9169
3.80045,8264
3.80307,7814
3.80567,8303
3.80827,8314
3.81088,7702
3.81348,8527
3.81610,8244
3.81870,9527
3.82130,10443
3.82392,7455
3.82652,10052
3.82913,8865
3.83173,7751
3.83433,8215
3.83695,8439
3.83955,8949
3.84217,8975
3.84477,9346
3.84737,8427
3.84998,9134
3.85258,8778
3.85520,8841
3.85780,9857
3.86040,8535
3.86302,8811
3.86562,7689
3.86823,9743
3.87083,8099
3.87343,8858
3.87605,8318
3.87865,7613
3.88127,8540
3.88387,8641
3.88648,9916
3.88908,10572
3.89168,8480
3.89430,7905
3.89690,7949
3.89952,8185
3.90212,8854
3.90472,8953
3.90733,10441
3.90993,8634
3.91255,8478
3.91515,10366
3.91775,9165
3.92037,9167
3.92297,10996
3.92558,11440
3.92818,12360
3.93078,16892
3.93340,22921
3.93600,26794
3.93862,29815
3.94122,25114
3.94382,22034
3.94643,17299
3.94903,17341
3.95165,12806
3.95425,11306
3.95685,12565
3.95947,11249
3.96207,11053
3.96468,10849
3.96728,8952
3.96990,9137
3.97250,10810
3.97510,10346
3.97772,9895
3.98032,10349
3.98293,9520
3.98553,10741
3.98813,10412
3.99075,8511
3.99335,9265
3.99597,9185
3.99857,9453
4.00117,7062
4.00378,8235
4.00638,9114
4.00900,8614
4.01160,8024
4.01420,9474
4.01682,9123
4.01942,9107
4.02203,8639
4.02463,9969
4.02723,8811
4.02985,9945
4.03245,8634
4.03507,9876
4.03767,9321
4.04027,8872
4.04288,7884
4.04548,9638
4.04810,9991
4.05070,8190
4.05332,10312
4.05592,9775
4.05852,9258
4.06113,9822
4.06373,9265
4.06635,8975
4.06895,9473
4.07155,8917
4.07417,9094
4.07677,8985
4.07938,8439
4.08198,8389
4.08458,9515
4.08720,8403
4.08980,9376
4.09242,9378
4.09502,9718
4.09762,9165
4.10023,8229
4.10283,10520
4.10545,9087
4.10805,9052
4.11065,8431
4.11327,7779
4.11587,8333
4.11848,7949
4.12108,8823
4.12368,7987
4.12630,8156
4.12890,9027
4.13152,8793
4.13412,9336
4.13673,8355
4.13933,9281
4.14193,8523
4.14455,7607
4.14715,9048
4.14977,8187
4.15237,7889
4.15497,9344
4.15758,8932
4.16018,9292
4.16280,8512
4.16540,9251
4.16800,8575
4.17062,8746
4.17322,7840
4.17583,8782
4.17843,7991
4.18103,10136
4.18365,9263
4.18625,9033
4.18887,8506
4.19147,8726
4.19407,8835
4.19668,9201
4.19928,7730
4.20190,6965
4.20450,8282
4.20710,8929
4.20972,7885
4.21232,9265
4.21493,8381
4.21753,7257
4.22015,8688
4.22275,8410
4.22535,8089
4.22797,8609
4.23057,9030
4.23318,7840
4.23578,9386
4.23838,8751
4.24100,6960
4.24360,8400
4.24622,8431
4.24882,8845
4.25142,9310
4.25403,8793
4.25663,8547
4.25925,7214
4.26185,8281
4.26445,8307
4.26707,8999
4.26967,8549
4.27228,9805
4.27488,8220
4.27748,8224
4.28010,7975
4.28270,7791
4.28532,7838
4.28792,9200
4.29052,8935
4.29313,8696
4.29573,7813
4.29835,8279
4.30095,7890
4.30357,8785
4.30617,9572
4.30877,8541
4.31138,8732
4.31398,7312
4.31660,8313
4.31920,8269
4.32180,8730
4.32442,7069
4.32702,7936
4.32963,7658
4.33223,8801
4.33483,8916
4.33745,8979
4.34005,8291
4.34267,8213
4.34527,7884
4.34787,8107
4.35048,10285
4.35308,6462
4.35570,6884
4.35830,8313
4.36090,7057
4.36352,8733
4.36612,9110
4.36873,8591
4.37133,9062
4.37393,8354
4.37655,8454
4.37915,7360
4.38177,7482
4.38437,7596
4.38698,9183
4.38958,8611
4.39218,8605
4.39480,8661
4.39740,8992
4.40002,8590
4.40262,8337
4.40522,9590
4.40783,8643
4.41043,8749
4.41305,9612
4.41565,9281
4.41825,7771
4.42087,10092
4.42347,10063
4.42608,8391
4.42868,8727
4.43128,10295
4.43390,9373
4.43650,7926
4.43912,9468
4.44172,8752
4.44432,8519
4.44693,8394
4.44953,7948
4.45215,7577
4.45475,8535
4.45737,7469
4.45997,8693
4.46257,9113
4.46518,7395
4.46778,8338
4.47040,8180
4.47300,8619
4.47560,8410
4.47822,9280
4.48082,9645
4.48343,9214
4.48603,9016
4.48863,8544
4.49125,9296
4.49385,8185
4.49647,9018
4.49907,8292
4.50167,9431
4.50428,9671
4.50688,8994
4.50950,5975
4.51210,8558
4.51470,9201
4.51732,8385
4.51992,9241
4.52253,9103
4.52513,7915
4.52773,6825
4.53035,7235
4.53295,8357
4.53557,8838
4.53817,7560
4.54078,8279
4.54338,9204
4.54598,8624
4.54860,8603
4.55120,8855
4.55382,8370
4.55642,9463
4.55902,7475
4.56163,8729
4.56423,8477
4.56685,7447
4.56945,9438
4.57205,8597
4.57467,7338
4.57727,8219
4.57988,8035
4.58248,6459
4.58508,8633
4.58770,8956
4.59030,9691
4.59292,8769
4.59552,8120
4.59812,9155
4.60073,7743
4.60333,9571
4.60595,7009
4.60855,8233
4.61115,9589
4.61377,8632
4.61637,7812
4.61898,9155
4.62158,8599
4.62420,7612
4.62680,6603
4.62940,7542
4.63202,8015
4.63462,7531
4.63723,6944
4.63983,9655
4.64243,7674
4.64505,8488
4.64765,8611
4.65027,9755
4.65287,8063
4.65547,7922
4.65808,7276
4.66068,8172
4.66330,8321
4.66590,8598
4.66850,8791
4.67112,8487
4.67372,8698
4.67633,8656
4.67893,8302
4.68153,8095
4.68415,8212
4.68675,7987
4.68937,9049
4.69197,7869
4.69457,8635
4.69718,8646
4.69978,9038
4.70240,8428
4.70500,8222
4.70762,8480
4.71022,9603
4.71282,10648
4.71543,8711
4.71803,8364
4.72065,8191
4.72325,8638
4.72585,7151
4.72847,7951
4.73107,7811
4.73368,7979
4.73628,8108
4.73888,6902
4.74150,9446
4.74410,8473
4.74672,7989
4.74932,9215
4.75192,8986
4.75453,8469
4.75713,8655
4.75975,7957
4.76235,8331
4.76495,7495
4.76757,9189
4.77017,8130
4.77278,8084
4.77538,7555
4.77798,8216
4.78060,6661
4.78320,8560
4.78582,9118
4.78842,8965
4.79103,9159
4.79363,9351
4.79623,8788
4.79885,7947
4.80145,7922
4.80407,8031
4.80667,8430
4.80927,9288
4.81188,8337
4.81448,8130
4.81710,8309
4.81970,8910
4.82230,8720
4.82492,8948
4.82752,8061
4.83013,8696
4.83273,8328
4.83533,9009
4.83795,7280
4.84055,7637
4.84317,6410
4.84577,9362
4.84837,9363
4.85098,7472
4.85358,8157
4.85620,8655
4.85880,8875
4.86140,8788
4.86402,8665
4.86662,8834
4.86923,9074
4.87183,7460
4.87445,7484
4.87705,7392
4.87965,8641
4.88227,8434
4.88487,8173
4.88748,8470
4.89008,9712
4.89268,8378
4.89530,8740
4.89790,7980
4.90052,8580
4.90312,8509
4.90572,9285
4.90833,7742
4.91093,8335
4.91355,8694
4.91615,9522
4.91875,9125
4.92137,7831
4.92397,8236
4.92658,9385
4.92918,7509
4.93178,8038
4.93440,8545
4.93700,9068
4.93962,7519
4.94222,8779
4.94482,9747
4.94743,8218
4.95003,8257
4.95265,8999
4.95525,8690
4.95787,8224
4.96047,8686
4.96307,9568
4.96568,8689
4.96828,7481
4.97090,8267
4.97350,8183
4.97610,7767
4.97872,7258
4.98132,9633
4.98393,9012
4.98653,8754
4.98913,8543
4.99175,8730
4.99435,8457
4.99697,8398
4.99957,9708
5.00217,8060
5.00478,8200
5.00738,7270
5.01000,9190
5.01260,8765
5.01520,8228
5.01782,7731
5.02042,9295
5.02303,7436
5.02563,7032
5.02823,9449
5.03085,8806
5.03345,7698
5.03607,7149
5.03867,8994
5.04128,8239
5.04388,7451
5.04648,8274
5.04910,8267
5.05170,10273
5.05432,9431
5.05692,9110
5.05952,8460
5.06213,8325
5.06473,8265
5.06735,7974
5.06995,9290
5.07255,7970
5.07517,7943
5.07777,8109
5.08038,10213
5.08298,8502
5.08558,9063
5.08820,8489
5.09080,8411
5.09342,9313
5.09602,8441
5.09862,7673
5.10123,8282
5.10383,9548
5.10645,9737
5.10905,9365
5.11165,8469
5.11427,9676
5.11687,9017
5.11948,9072
5.12208,8923
5.12470,7938
5.12730,8016
5.12990,8995
5.13252,9253
5.13512,7883
5.13773,9390
5.14033,7600
5.14293,10274
5.14555,9206
5.14815,9104
5.15077,7227
5.15337,9395
5.15597,8480
5.15858,9735
5.16118,8351
5.16380,8515
5.16640,8211
5.16900,8252
5.17162,8538
5.17422,8596
5.17683,9164
5.17943,7410
5.18203,8352
5.18465,7377
5.18725,8193
5.18987,8628
5.19247,8297
5.19507,9092
5.19768,8750
5.20028,9504
5.20290,8359
5.20550,8220
5.20812,9652
5.21072,10029
5.21332,7830
5.21593,9529
5.21853,7967
5.22115,7912
5.22375,10125
5.22635,9520
5.22897,9116
5.23157,8817
5.23418,8058
5.23678,8458
5.23938,8866
5.24200,7910
5.24460,9810
5.24722,8137
5.24982,8938
5.25242,9272
5.25503,9220
5.25763,8424
5.26025,7839
5.26285,8627
5.26545,7894
5.26807,8513
5.27067,8393
5.27328,9443
5.27588,8211
5.27848,7770
5.28110,8190
5.28370,7857
5.28632,8758
5.28892,8774
5.29153,9265
5.29413,9234
5.29673,8869
5.29935,9741
5.30195,9445
5.30457,8741
5.30717,8007
5.30977,6720
5.31238,8622
5.31498,9465
5.31760,10679
5.32020,8237
5.32280,8165
5.32542,9114
5.32802,7659
5.33063,9088
5.33323,10475
5.33583,9806
5.33845,10010
5.34105,8366
5.34367,8362
5.34627,9259
5.34887,9115
5.35148,7951
5.35408,9606
5.35670,7006
5.35930,9458
5.36190,9450
5.36452,9586
5.36712,8742
5.36973,9421
5.37233,8652
5.37495,8813
5.37755,9016
5.38015,8919
5.38277,9336
5.38537,8261
5.38798,8801
5.39058,7875
5.39318,9803
5.39580,9298
5.39840,9286
5.40102,9392
5.40362,9784
5.40622,8318
5.40883,9928
5.41143,8591
5.41405,8946
5.41665,10244
5.41925,8529
5.42187,9287
5.42447,9046
5.42708,8426
5.42968,8748
5.43228,10065
5.43490,8124
5.43750,8447
5.44012,8106
5.44272,9135
5.44532,9793
5.44793,8621
5.45053,9946
5.45315,13253
5.45575,13450
5.45837,13117
5.46097,11524
5.46357,12400
5.46618,11029
5.46878,9724
5.47140,11316
5.47400,9838
5.47660,8395
5.47922,10581
5.48182,10724
5.48443,9958
5.48703,8356
5.48963,8257
5.49225,8679
5.49485,9094
5.49747,9738
5.50007,8432
5.50267,10509
5.50528,9189
5.50788,8719
5.51050,9498
5.51310,8675
5.51570,8225
5.51832,8651
5.52092,9714
5.52353,9130
5.52613,9946
5.52873,10098
5.53135,8893
5.53395,8289
5.53657,9678
5.53917,9000
5.54178,8642
5.54438,10080
5.54698,9307
5.54960,9938
5.55220,9225
5.55482,9290
5.55742,8979
5.56002,8014
5.56263,8810
5.56523,8710
5.56785,10314
5.57045,8924
5.57305,9401
5.57567,9002
5.57827,9011
5.58088,10008
5.58348,9571
5.58608,9656
5.58870,8962
5.59130,10136
5.59392,8794
5.59652,9060
5.59912,8238
5.60173,8094
5.60433,9573
5.60695,9683
5.60955,10461
5.61215,8689
5.61477,9143
5.61737,8158
5.61998,10190
5.62258,9314
5.62520,8862
5.62780,8545
5.63040,9263
5.63302,9596
5.63562,9532
5.63823,7762
5.64083,10253
5.64343,10972
5.64605,9715
5.64865,9466
5.65127,10929
5.65387,10639
5.65647,11343
5.65908,9864
5.66168,9758
5.66430,9214
5.66690,9496
5.66950,10098
5.67212,10078
5.67472,8441
5.67733,8448
5.67993,8899
5.68253,8746
5.68515,8633
5.68775,8155
5.69037,10013
5.69297,9859
5.69557,9293
5.69818,8390
5.70078,9262
5.70340,10982
5.70600,12503
5.70862,11911
5.71122,10588
5.71382,11586
5.71643,10276
5.71903,9349
5.72165,9781
5.72425,8665
5.72685,10239
5.72947,8831
5.73207,9524
5.73468,11063
5.73728,8898
5.73988,8886
5.74250,8834
5.74510,9143
5.74772,10146
5.75032,10023
5.75292,8573
5.75553,10105
5.75813,8646
5.76075,9832
5.76335,10399
5.76595,10697
5.76857,12306
5.77117,12559
5.77378,11974
5.77638,11105
5.77898,10686
5.78160,9737
5.78420,10149
5.78682,7370
5.78942,10534
5.79203,10053
5.79463,8099
5.79723,9949
5.79985,9819
5.80245,9349
5.80507,9832
5.80767,10678
5.81027,13641
5.81288,23811
5.81548,50199
5.81810,84461
5.82070,117730
5.82330,142976
5.82592,118475
5.82852,84971
5.83113,50853
5.83373,29934
5.83633,22359
5.83895,19102
5.84155,19068
5.84417,19158
5.84677,17537
5.84937,17582
5.85198,15478
5.85458,12278
5.85720,11980
5.85980,12431
5.86240,12167
5.86502,12359
5.86762,10841
5.87023,12437
5.87283,10740
5.87545,12270
5.87805,11205
5.88065,13648
5.88327,15016
5.88587,17451
5.88848,20141
5.89108,19776
5.89368,17251
5.89630,17515
5.89890,15550
5.90152,13008
5.90412,13269
5.90672,12831
5.90933,12002
5.91193,11949
5.91455,12413
5.91715,12573
5.91975,11626
5.92237,12482
5.92497,13733
5.92758,13417
5.93018,13843
5.93278,12860
5.93540,14959
5.93800,14329
5.94062,16660
5.94322,16068
5.94582,13509
5.94843,14674
5.95103,13466
5.95365,11927
5.95625,13904
5.95887,11055
5.96147,12675
5.96407,12518
5.96668,13070
5.96928,12355
5.97190,13646
5.97450,11589
5.97710,12041
5.97972,12948
5.98232,10053
5.98493,11178
5.98753,12829
5.99013,11578
5.99275,11373
5.99535,11912
5.99797,13769
6.00057,13655
6.00317,11945
6.00578,12264
6.00838,11946
6.01100,11233
6.01360,10833
6.01620,12558
6.01882,11591
6.02142,12648
6.02403,11760
6.02663,11637
6.02923,11300
6.03185,11543
6.03445,12076
6.03707,11595
6.03967,12771
6.04228,13024
6.04488,13485
6.04748,17290
6.05010,19328
6.05270,19883
6.05532,20982
6.05792,21038
6.06052,19443
6.06313,19181
6.06573,16364
6.06835,14995
6.07095,16746
6.07355,13871
6.07617,12787
6.07877,11939
6.08138,11967
6.08398,14573
6.08658,11978
6.08920,12820
6.09180,13782
6.09442,12422
6.09702,13923
6.09962,11846
6.10223,12204
6.10483,12259
6.10745,12872
6.11005,14038
6.11265,13822
6.11527,13079
6.11787,12103
6.12048,12988
6.12308,13974
6.12570,15213
6.12830,13701
6.13090,13180
6.13352,13407
6.13612,12484
6.13873,14537
6.14133,12593
6.14393,13229
6.14655,12180
6.14915,11032
6.15177,11596
6.15437,10595
6.15697,10260
6.15958,11861
6.16218,10426
6.16480,12466
6.16740,11155
6.17000,11998
6.17262,11526
6.17522,11275
6.17783,12240
6.18043,11736
6.18303,13283
6.18565,13765
6.18825,13371
6.19087,11498
6.19347,12901
6.19607,11461
6.19868,9748
6.20128,11663
6.20390,10950
6.20650,10973
6.20912,11105
6.21172,11004
6.21432,12022
6.21693,10609
6.21953,10332
6.22215,10970
6.22475,9994
6.22735,12409
6.22997,10870
6.23257,12435
6.23518,10521
6.23778,10188
6.24038,11691
6.24300,10538
6.24560,10293
6.24822,10014
6.25082,10274
6.25342,10419
6.25603,11819
6.25863,11692
6.26125,10766
6.26385,11140
6.26645,11744
6.26907,10453
6.27167,10362
6.27428,11966
6.27688,10851
6.27948,11544
6.28210,12329
6.28470,10751
6.28732,10125
6.28992,10063
6.29253,10250
6.29513,10822
6.29773,10142
6.30035,9663
6.30295,10675
6.30557,11566
6.30817,9437
6.31077,10971
6.31338,11221
6.31598,11843
6.31860,10026
6.32120,10491
6.32380,10206
6.32642,11053
6.32902,11245
6.33163,10563
6.33423,9955
6.33683,11355
6.33945,9961
6.34205,12605
6.34467,10711
6.34727,10598
6.34987,12200
6.35248,11323
6.35508,11702
6.35770,10500
6.36030,11545
6.36290,10487
6.36552,11445
6.36812,11253
6.37073,12628
6.37333,11052
6.37595,12356
6.37855,10778
6.38115,11444
6.38377,11962
6.38637,11783
6.38898,11530
6.39158,11956
6.39418,10269
6.39680,11726
6.39940,11830
6.40202,12257
6.40462,12547
6.40722,14035
6.40983,13716
6.41243,11196
6.41505,11879
6.41765,10461
6.42025,12375
6.42287,11211
6.42547,10755
6.42808,10528
6.43068,12224
6.43328,12182
6.43590,10633
6.43850,9803
6.44112,11481
6.44372,12233
6.44632,10666
6.44893,13047
6.45153,10655
6.45415,11304
6.45675,10655
6.45937,12135
6.46197,9731
6.46457,10635
6.46718,11337
6.46978,12416
6.47240,11384
6.47500,11996
6.47760,12106
6.48022,12980
6.48282,9618
6.48543,10017
6.48803,10772
6.49063,10052
6.49325,12769
6.49585,12817
6.49847,16444
6.50107,20415
6.50367,22351
6.50628,24433
6.50888,21065
6.51150,19003
6.51410,16348
6.51670,14142
6.51932,13211
6.52192,13613
6.52453,11459
6.52713,12334
6.52973,12099
6.53235,13050
6.53495,12632
6.53757,12509
6.54017,12594
6.54278,13365
6.54538,11546
6.54798,12180
6.55060,11639
6.55320,12284
6.55582,11631
6.55842,11840
6.56102,11521
6.56363,12419
6.56623,11863
6.56885,13324
6.57145,12035
6.57405,11910
6.57667,12975
6.57927,12240
6.58188,11863
6.58448,13374
6.58708,18152
6.58970,41455
6.59230,156144
6.59492,593126
6.59752,1940291
6.60012,5024768
6.60273,9895084
6.60533,1.522116E+07
6.60795,1.959541E+07
6.61055,2.218596E+07
6.61315,2.08346E+07
6.61577,1.320084E+07
6.61837,4807467
6.62098,1355592
6.62358,452738
6.62620,222008
6.62880,152253
6.63140,122290
6.63402,103000
6.63662,83693
6.63923,75764
6.64183,64880
6.64443,60555
6.64705,52204
6.64965,51818
6.65227,48475
6.65487,45158
6.65747,39957
6.66008,36936
6.66268,38823
6.66530,37636
6.66790,33908
6.67050,30135
6.67312,32674
6.67572,33644
6.67833,29133
6.68093,29716
6.68353,25724
6.68615,29166
6.68875,25689
6.69137,26618
6.69397,26723
6.69657,26285
6.69918,25427
6.70178,25023
6.70440,25753
6.70700,24380
6.70962,24357
6.71222,22417
6.71482,22235
6.71743,20976
6.72003,22129
6.72265,20384
6.72525,19865
6.72785,21791
6.73047,23136
6.73307,21821
6.73568,20999
6.73828,21755
6.74088,21770
6.74350,20962
6.74610,20761
6.74872,21028
6.75132,19954
6.75392,20001
6.75653,19145
6.75913,19277
6.76175,19142
6.76435,18995
6.76695,19956
6.76957,20977
6.77217,20576
6.77478,19994
6.77738,18715
6.77998,16488
6.78260,17864
6.78520,18191
6.78782,17846
6.79042,16259
6.79303,18624
6.79563,17500
6.79823,18810
6.80085,16888
6.80345,17379
6.80607,17355
6.80867,18575
6.81127,16032
6.81388,17919
6.81648,17539
6.81910,17629
6.82170,16397
6.82430,16052
6.82692,15523
6.82952,14936
6.83213,19271
6.83473,17220
6.83733,16795
6.83995,15620
6.84255,15580
6.84517,16230
6.84777,12923
6.85037,16895
6.85298,18406
6.85558,17963
6.85820,25732
6.86080,31027
6.86340,43708
6.86602,51855
6.86862,52399
6.87123,47387
6.87383,38488
6.87645,30914
6.87905,23471
6.88165,20787
6.88427,23424
6.88687,20784
6.88948,18537
6.89208,18034
6.89468,18243
6.89730,19561
6.89990,18636
6.90252,15803
6.90512,16848
6.90772,17402
6.91033,16943
6.91293,16493
6.91555,19885
6.91815,17527
6.92075,17329
6.92337,16282
6.92597,17142
6.92858,16543
6.93118,18869
6.93378,22014
6.93640,23781
6.93900,23924
6.94162,24399
6.94422,21339
6.94682,21437
6.94943,19299
6.95203,16545
6.95465,18657
6.95725,18020
6.95987,16787
6.96247,18300
6.96507,18927
6.96768,15405
6.97028,18237
6.97290,16133
6.97550,16969
6.97810,17102
6.98072,15365
6.98332,16530
6.98593,15238
6.98853,16342
6.99113,16417
6.99375,16380
6.99635,16639
6.99897,14450
7.00157,15047
7.00417,16560
7.00678,15575
7.00938,16373
7.01200,16069
7.01460,17469
7.01720,15949
7.01982,16285
7.02242,14835
7.02503,16148
7.02763,16307
7.03023,15648
7.03285,16508
7.03545,15039
7.03807,15681
7.04067,17183
7.04328,16808
7.04588,15061
7.04848,17503
7.05110,19443
7.05370,18513
7.05632,19532
7.05892,18785
7.06152,17208
7.06413,14909
7.06673,15552
7.06935,17906
7.07195,16346
7.07455,17912
7.07717,16565
7.07977,16068
7.08238,18060
7.08498,16916
7.08758,16558
7.09020,17573
7.09280,15357
7.09542,16019
7.09802,14658
7.10062,15977
7.10323,16020
7.10583,15676
7.10845,16742
7.11105,15348
7.11365,17142
7.11627,15397
7.11887,15062
7.12148,17284
7.12408,15057
7.12670,17512
7.12930,14336
7.13190,16017
7.13452,15863
7.13712,16876
7.13973,14161
7.14233,15966
7.14493,16182
7.14755,17045
7.15015,16981
7.15277,15512
7.15537,18488
7.15797,16344
7.16058,16094
7.16318,16233
7.16580,16732
7.16840,15864
7.17100,15976
7.17362,14525
7.17622,16535
7.17883,15211
7.18143,17806
7.18403,16134
7.18665,14936
7.18925,16215
7.19187,16426
7.19447,15906
7.19707,17410
7.19968,17135
7.20228,17443
7.20490,16418
7.20750,18551
7.21012,19844
7.21272,20827
7.21532,22396
7.21793,23074
7.22053,20861
7.22315,19631
7.22575,16956
7.22835,17710
7.23097,15801
7.23357,16290
7.23618,17520
7.23878,18476
7.24138,17604
7.24400,18226
7.24660,18322
7.24922,19055
7.25182,16190
7.25442,19170
7.25703,17675
7.25963,17628
7.26225,16008
7.26485,17837
7.26745,16514
7.27007,17210
7.27267,15370
7.27528,16374
7.27788,18985
7.28048,15507
7.28310,17840
7.28570,17010
7.28832,15830
7.29092,16723
7.29353,17370
7.29613,16217
7.29873,17660
7.30135,17341
7.30395,16786
7.30657,17627
7.30917,18840
7.31177,18674
7.31438,16641
7.31698,18802
7.31960,17015
7.32220,15150
7.32480,16779
7.32742,16072
7.33002,15923
7.33263,16432
7.33523,18396
7.33783,14560
7.34045,17130
7.34305,17390
7.34567,16651
7.34827,17176
7.35087,19395
7.35348,17962
7.35608,17381
7.35870,16858
7.36130,16760
7.36390,16799
7.36652,18607
7.36912,18071
7.37173,16462
7.37433,16930
7.37695,16303
7.37955,16685
7.38215,16837
7.38477,16120
7.38737,18167
7.38998,17740
7.39258,16022
7.39518,17696
7.39780,16653
7.40040,18552
7.40302,17708
7.40562,18937
7.40822,18918
7.41083,18737
7.41343,17838
7.41605,16250
7.41865,18968
7.42125,16875
7.42387,16798
7.42647,18423
7.42908,18720
7.43168,17147
7.43428,18414
7.43690,18805
7.43950,17454
7.44212,17539
7.44472,16620
7.44732,17943
7.44993,20325
7.45253,18877
7.45515,19126
7.45775,20686
7.46037,17834
7.46297,16465
7.46557,17262
7.46818,17643
7.47078,18494
7.47340,18169
7.47600,18453
7.47860,17613
7.48122,18363
7.48382,19658
7.48643,18758
7.48903,19922
7.49163,18111
7.49425,18076
7.49685,17074
7.49947,18401
7.50207,19556
7.50467,17369
7.50728,18565
7.50988,17959
7.51250,17716
7.51510,18529
7.51770,19443
7.52032,20186
7.52292,24030
7.52553,27831
7.52813,32260
7.53073,29627
7.53335,27997
7.53595,25849
7.53857,20806
7.54117,20421
7.54378,19649
7.54638,18381
7.54898,20049
7.55160,19889
7.55420,18835
7.55682,18797
7.55942,19485
7.56202,17876
7.56463,18740
7.56723,18412
7.56985,20483
7.57245,20506
7.57505,19546
7.57767,23353
7.58027,23579
7.58288,20804
7.58548,21471
7.58808,22499
7.59070,22078
7.59330,20907
7.59592,20238
7.59852,21098
7.60112,19927
7.60373,20941
7.60633,18691
7.60895,19369
7.61155,20415
7.61415,19859
7.61677,18348
7.61937,18657
7.62198,20794
7.62458,22148
7.62720,22511
7.62980,19782
7.63240,18901
7.63502,20171
7.63762,18814
7.64023,20037
7.64283,16873
7.64543,19003
7.64805,19033
7.65065,20447
7.65327,20208
7.65587,20947
7.65847,20712
7.66108,20159
7.66368,22082
7.66630,21933
7.66890,24078
7.67150,30688
7.67412,31178
7.67672,39031
7.67933,40686
7.68193,40254
7.68453,33717
7.68715,31137
7.68975,26225
7.69237,26923
7.69497,23542
7.69757,23525
7.70018,23038
7.70278,21750
7.70540,22398
7.70800,23013
7.71062,22017
7.71322,22778
7.71582,24600
7.71843,20940
7.72103,22940
7.72365,21879
7.72625,22193
7.72885,22931
7.73147,23725
7.73407,22898
7.73668,21168
7.73928,23805
7.74188,22204
7.74450,21334
7.74710,22778
7.74972,22630
7.75232,21810
7.75492,26212
7.75753,21682
7.76013,20411
7.76275,19560
7.76535,22046
7.76795,22096
7.77057,23769
7.77317,21862
7.77578,23087
7.77838,23193
7.78098,23577
7.78360,21572
7.78620,21967
7.78882,22225
7.79142,22690
7.79403,22875
7.79663,21839
7.79923,22173
7.80185,23473
7.80445,23151
7.80707,22386
7.80967,21262
7.81227,24099
7.81488,22085
7.81748,21497
7.82010,24758
7.82270,24456
7.82530,27307
7.82792,28742
7.83052,28312
7.83313,31021
7.83573,26412
7.83833,25431
7.84095,21301
7.84355,24216
7.84617,22802
7.84877,21168
7.85137,25925
7.85398,24407
7.85658,23952
7.85920,24084
7.86180,22939
7.86440,22973
7.86702,23211
7.86962,23825
7.87223,23851
7.87483,24892
7.87745,22554
7.88005,22160
7.88265,23819
7.88527,22862
7.88787,23395
7.89048,24853
7.89308,25557
7.89568,23802
7.89830,23785
7.90090,23811
7.90352,26332
7.90612,25846
7.90872,26592
7.91133,27323
7.91393,27314
7.91655,24122
7.91915,25526
7.92175,26337
7.92437,26487
7.92697,28270
7.92958,25860
7.93218,24855
7.93478,24609
7.93740,24385
7.94000,24833
7.94262,24644
7.94522,23476
7.94783,26149
7.95043,25068
7.95303,26075
7.95565,27103
7.95825,24065
7.96087,25437
7.96347,25751
7.96607,26060
7.96868,25854
7.97128,25190
7.97390,25529
7.97650,24402
7.97910,25969
7.98172,24925
7.98432,29074
7.98693,26440
7.98953,27143
7.99213,27189
7.99475,25346
7.99735,26227
7.99997,28742
8.00257,27275
8.00517,27196
8.00778,28210
8.01038,25901
8.01300,26947
8.01560,28130
8.01820,26095
8.02082,26669
8.02342,27499
8.02603,24586
8.02863,27484
8.03125,26108
8.03385,28019
8.03645,26476
8.03907,25524
8.04167,27483
8.04428,27534
8.04688,25747
8.04948,28293
8.05210,31330
8.05470,32374
8.05732,54297
8.05992,138481
8.06252,442231
8.06513,1495892
8.06773,4069852
8.07035,8922482
8.07295,1.353994E+07
8.07555,1.637505E+07
8.07817,1.618256E+07
8.08077,1.253369E+07
8.08338,6963832
8.08598,3403079
8.08858,1809211
8.09120,1151860
8.09380,831843
8.09642,634143
8.09902,498033
8.10162,417391
8.10423,364687
8.10683,311992
8.10945,263459
8.11205,238863
8.11467,222989
8.11727,198335
8.11987,177881
8.12248,167762
8.12508,149437
8.12770,138031
8.13030,131266
8.13290,121130
8.13552,113459
8.13812,107938
8.14073,101674
8.14333,93377
8.14593,88830
8.14855,86084
8.15115,86341
8.15377,77360
8.15637,76137
8.15897,73766
8.16158,74544
8.16418,69100
8.16680,68713
8.16940,67001
8.17200,65847
8.17462,63812
8.17722,68358
8.17983,69404
8.18243,66992
8.18503,66914
8.18765,61810
8.19025,59121
8.19287,57520
8.19547,51872
8.19808,51863
8.20068,51280
8.20328,50107
8.20590,54005
8.20850,53628
8.21112,51321
8.21372,49347
8.21632,49094
8.21893,46420
8.22153,45488
8.22415,45197
8.22675,45886
8.22935,46849
8.23197,44783
8.23457,44065
8.23718,41639
8.23978,43494
8.24238,43038
8.24500,43181
8.24760,43491
8.25022,41325
8.25282,43527
8.25542,40843
8.25803,38527
8.26063,40558
8.26325,38577
8.26585,41533
8.26845,40306
8.27107,42781
8.27367,42472
8.27628,42225
8.27888,41470
8.28150,41991
8.28410,43967
8.28670,37880
8.28932,38214
8.29192,40870
8.29453,40129
8.29713,43283
8.29973,41742
8.30235,42720
8.30495,42328
8.30757,42154
8.31017,40933
8.31277,43205
8.31538,39645
8.31798,41951
8.32060,43733
8.32320,41464
8.32580,39379
8.32842,41102
8.33102,43483
8.33363,43219
8.33623,41963
8.33883,41035
8.34145,42451
8.34405,44320
8.34667,42824
8.34927,40467
8.35187,42484
8.35448,42123
8.35708,44471
8.35970,39517
8.36230,41239
8.36492,42829
8.36752,41651
8.37012,40673
8.37273,42530
8.37533,40973
8.37795,42820
8.38055,44505
8.38315,41776
8.38577,41637
8.38837,44468
8.39098,42398
8.39358,44631
8.39618,44941
8.39880,45150
8.40140,45746
8.40402,41689
8.40662,42769
8.40922,44660
8.41183,42796
8.41443,45902
8.41705,44954
8.41965,43297
8.42225,45518
8.42487,43929
8.42747,45294
8.43008,45818
8.43268,46808
8.43528,45346
8.43790,45991
8.44050,44319
8.44312,47434
8.44572,45080
8.44833,45362
8.45093,45926
8.45353,44781
8.45615,44400
8.45875,42504
8.46137,46815
8.46397,44411
8.46657,47295
8.46918,48958
8.47178,48310
8.47440,51650
8.47700,52160
8.47960,54354
8.48222,50516
8.48482,50022
8.48743,50094
8.49003,50465
8.49263,49582
8.49525,49176
8.49785,53457
8.50047,49496
8.50307,52237
8.50567,54797
8.50828,61405
8.51088,59290
8.51350,62243
8.51610,61861
8.51870,58043
8.52132,55568
8.52392,52843
8.52653,56779
8.52913,53045
8.53175,53012
8.53435,52560
8.53695,55101
8.53957,53592
8.54217,53470
8.54478,53194
8.54738,56337
8.54998,54550
8.55260,54586
8.55520,56520
8.55782,54693
8.56042,54300
8.56302,52468
8.56563,58086
8.56823,55361
8.57085,57848
8.57345,58629
8.57605,59585
8.57867,57116
8.58127,56430
8.58388,57865
8.58648,56032
8.58908,59583
8.59170,59268
8.59430,60677
8.59692,61174
8.59952,57905
8.60212,55881
8.60473,58676
8.60733,60502
8.60995,59480
8.61255,56677
8.61517,63217
8.61777,61891
8.62037,60448
8.62298,58816
8.62558,60799
8.62820,62496
8.63080,61159
8.63340,61834
8.63602,63931
8.63862,62746
8.64123,63178
8.64383,64108
8.64643,65568
8.64905,62295
8.65165,65610
8.65427,61988
8.65687,61525
8.65947,63220
8.66208,69593
8.66468,64619
8.66730,64881
8.66990,66798
8.67250,70699
8.67512,68749
8.67772,72019
8.68033,68664
8.68293,70534
8.68553,72550
8.68815,75472
8.69075,76367
8.69337,76941
8.69597,73704
8.69858,71086
8.70118,75650
8.70378,75722
8.70640,78903
8.70900,78662
8.71162,78721
8.71422,83629
8.71682,82155
8.71943,82959
8.72203,88626
8.72465,82724
8.72725,81147
8.72985,83489
8.73247,82706
8.73507,83999
8.73768,84113
8.74028,80241
8.74288,80112
8.74550,81050
8.74810,82922
8.75072,78813
8.75332,80696
8.75592,81552
8.75853,80858
8.76113,80962
8.76375,78291
8.76635,78456
8.76895,81779
8.77157,79454
8.77417,81870
8.77678,83504
8.77938,82033
8.78200,78912
8.78460,85515
8.78720,81415
8.78982,81374
8.79242,86281
8.79503,82880
8.79763,87758
8.80023,83571
8.80285,85686
8.80545,83584
8.80807,89073
8.81067,84997
8.81327,85478
8.81588,85458
8.81848,86883
8.82110,88364
8.82370,84517
8.82630,85624
8.82892,88417
8.83152,86804
8.83413,85924
8.83673,89120
8.83933,88548
8.84195,87207
8.84455,84690
8.84717,84751
8.84977,87892
8.85237,90311
8.85498,91711
8.85758,86687
8.86020,89158
8.86280,89364
8.86542,86086
8.86802,89071
8.87062,89225
8.87323,89371
8.87583,90334
8.87845,91387
8.88105,94100
8.88365,92876
8.88627,89835
8.88887,94054
8.89148,91586
8.89408,88645
8.89668,91392
8.89930,93538
8.90190,92304
8.90452,92747
8.90712,93410
8.90972,89761
8.91233,94035
8.91493,93905
8.91755,94373
8.92015,94458
8.92275,90828
8.92537,92000
8.92797,98932
8.93058,93983
8.93318,96085
8.93578,98771
8.93840,98999
8.94100,99489
8.94362,98651
8.94622,94943
8.94883,93124
8.95143,96835
8.95403,97884
8.95665,97814
8.95925,97466
8.96187,95363
8.96447,98076
8.96707,99021
8.96968,97938
8.97228,102382
8.97490,100260
8.97750,93986
8.98010,96410
8.98272,99425
8.98532,98990
8.98793,98820
8.99053,101206
8.99313,98143
8.99575,98629
8.99835,100890
9.00097,100296
9.00357,100718
9.00617,100718
9.00878,100370
9.01138,95586
9.01400,101076
9.01660,98975
9.01920,100228
9.02182,102870
9.02442,100514
9.02703,100320
9.02963,102130
9.03225,101101
9.03485,102419
9.03745,96653
9.04007,102505
9.04267,97590
9.04528,99050
9.04788,105387
9.05048,101364
9.05310,99549
9.05570,100197
9.05832,99413
9.06092,100764
9.06352,102098
9.06613,103282
9.06873,100595
9.07135,101407
9.07395,102666
9.07655,100759
9.07917,100091
9.08177,102623
9.08438,103875
9.08698,100307
9.08958,100682
9.09220,100002
9.09480,102608
9.09742,102579
9.10002,103380
9.10262,102122
9.10523,101425
9.10783,105466
9.11045,98926
9.11305,98984
9.11567,105449
9.11827,104547
9.12087,102447
9.12348,104802
9.12608,108858
9.12870,104361
9.13130,106733
9.13390,106398
9.13652,104514
9.13912,103963
9.14173,104656
9.14433,102321
9.14693,100910
9.14955,105640
9.15215,106032
9.15477,105041
9.15737,101146
9.15997,102548
9.16258,102073
9.16518,99713
9.16780,103849
9.17040,102397
9.17300,104486
9.17562,104725
9.17822,105106
9.18083,101916
9.18343,103283
9.18603,108193
9.18865,107585
9.19125,106342
9.19387,111112
9.19647,102990
9.19908,109913
9.20168,105119
9.20428,105447
9.20690,108828
9.20950,112785
9.21212,105165
9.21472,103587
9.21732,102555
9.21993,103837
9.22253,101014
9.22515,102851
9.22775,102639
9.23035,99888
9.23297,99089
9.23557,104606
9.23818,100851
9.24078,108965
9.24338,100053
9.24600,105117
9.24860,103357
9.25122,105093
9.25382,101392
9.25642,98215
9.25903,103426
9.26163,105705
9.26425,101655
9.26685,101957
9.26945,100611
9.27207,101828
9.27467,101936
9.27728,102572
9.27988,105464
9.28250,103444
9.28510,102818
9.28770,104084
9.29032,99549
9.29292,100835
9.29553,101959
9.29813,105528
9.30073,107224
9.30335,102973
9.30595,102394
9.30857,108239
9.31117,100889
9.31377,106102
9.31638,105617
9.31898,102531
9.32160,102103
9.32420,101696
9.32680,105164
9.32942,108330
9.33202,105921
9.33463,101986
9.33723,101261
9.33983,102056
9.34245,102562
9.34505,104593
9.34767,102354
9.35027,105363
9.35287,102872
9.35548,105557
9.35808,104001
9.36070,107480
9.36330,105260
9.36592,106394
9.36852,105601
9.37112,106868
9.37373,107367
9.37633,103059
9.37895,103340
9.38155,103944
9.38415,99367
9.38677,103342
9.38937,106872
9.39198,102407
9.39458,101563
9.39718,101146
9.39980,100932
9.40240,101847
9.40502,99948
9.40762,104662
9.41022,100211
9.41283,99683
9.41543,106360
9.41805,106210
9.42065,103638
9.42325,101220
9.42587,105323
9.42847,106782
9.43108,102134
9.43368,103968
9.43628,99036
9.43890,103439
9.44150,100497
9.44412,104822
9.44672,102431
9.44933,104449
9.45193,101401
9.45453,104987
9.45715,105535
9.45975,104021
9.46237,107494
9.46497,105679
9.46757,104106
9.47018,108088
9.47278,102794
9.47540,102131
9.47800,102406
9.48060,104229
9.48322,105178
9.48582,108673
9.48843,107550
9.49103,102994
9.49363,104322
9.49625,104503
9.49885,100795
9.50147,102973
9.50407,102893
9.50667,103684
9.50928,107369
9.51188,105075
9.51450,105144
9.51710,97888
9.51970,97954
9.52232,105506
9.52492,99830
9.52753,101761
9.53013,103632
9.53275,104416
9.53535,102988
9.53795,105710
9.54057,107936
9.54317,104850
9.54578,101386
9.54838,100487
9.55098,101003
9.55360,104787
9.55620,100996
9.55882,107290
9.56142,102949
9.56402,102330
9.56663,103170
9.56923,104324
9.57185,101517
9.57445,102770
9.57705,105288
9.57967,101781
9.58227,101344
9.58488,102703
9.58748,100817
9.59008,100245
9.59270,103502
9.59530,102030
9.59792,108195
9.60052,97990
9.60312,103386
9.60573,102190
9.60833,105066
9.61095,104688
9.61355,104604
9.61617,104854
9.61877,107249
9.62137,107879
9.62398,103943
9.62658,104911
9.62920,99659
9.63180,101288
9.63440,103597
9.63702,102831
9.63962,98862
9.64223,100706
9.64483,102554
9.64743,102985
9.65005,102866
9.65265,103963
9.65527,101831
9.65787,102785
9.66047,107471
9.66308,105203
9.66568,102161
9.66830,103339
9.67090,102820
9.67350,102723
9.67612,103723
9.67872,106684
9.68133,101579
9.68393,103856
9.68653,102660
9.68915,100425
9.69175,105589
9.69437,101583
9.69697,100270
9.69958,104695
9.70218,107777
9.70478,103259
9.70740,107517
9.71000,97733
9.71262,105764
9.71522,106023
9.71782,104886
9.72043,101940
9.72303,105416
9.72565,102594
9.72825,104005
9.73085,101289
9.73347,106548
9.73607,101112
9.73868,104078
9.74128,102205
9.74388,107294
9.74650,102261
9.74910,106531
9.75172,106987
9.75432,106329
9.75692,99071
9.75953,100877
9.76213,105257
9.76475,105417
9.76735,105671
9.76995,103077
9.77257,104858
9.77517,104754
9.77778,106729
9.78038,102590
9.78300,109552
9.78560,107442
9.78820,104824
9.79082,103106
9.79342,101988
9.79603,104783
9.79863,103993
9.80123,108257
9.80385,102011
9.80645,103599
9.80907,106102
9.81167,104414
9.81427,107706
9.81688,102688
9.81948,102558
9.82210,108476
9.82470,101670
9.82730,105087
9.82992,104309
9.83252,100681
9.83513,101541
9.83773,102857
9.84033,103399
9.84295,101334
9.84555,109335
9.84817,107247
9.85077,104110
9.85337,107078
9.85598,103923
9.85858,103342
9.86120,104041
9.86380,102986
9.86642,106455
9.86902,101544
9.87162,101073
9.87423,102870
9.87683,107120
9.87945,103467
9.88205,106272
9.88465,103972
9.88727,104325
9.88987,102465
9.89248,99957
9.89508,103371
9.89768,101867
9.90030,104736
9.90290,100062
9.90552,105052
9.90812,107113
9.91072,103520
9.91333,102898
9.91593,102479
9.91855,106431
9.92115,102861
9.92375,103859
9.92637,101670
9.92897,105327
9.93158,106323
9.93418,102837
9.93678,104621
9.93940,102202
9.94200,102081
9.94462,107151
9.94722,104170
9.94983,101489
9.95243,104917
9.95503,101281
9.95765,103609
9.96025,103660
9.96287,102371
9.96547,102846
9.96807,103664
9.97068,99632
9.97328,104037
9.97590,99141
9.97850,104709
9.98110,103773
9.98372,100367
9.98632,102561
9.98893,106591
9.99153,107864
9.99413,105128
9.99675,101705
9.99935,105977
10.00197,104275
10.00457,103555
10.00717,102821
10.00978,105155
10.01238,102349
10.01500,104996
10.01760,107734
10.02020,99355
10.02282,102880
10.02542,105414
10.02803,105572
10.03063,100883
10.03325,103260
10.03585,106715
10.03845,100323
10.04107,100319
10.04367,104956
10.04628,103883
10.04888,104399
10.05148,102459
10.05410,108341
10.05670,108499
10.05932,106467
10.06192,100078
10.06452,104551
10.06713,105094
10.06973,104490
10.07235,99940
10.07495,100902
10.07755,106050
10.08017,107928
10.08277,102405
10.08538,103893
10.08798,102634
10.09058,105713
10.09320,104705
10.09580,104411
10.09842,103515
10.10102,101396
10.10362,102286
10.10623,105564
10.10883,101019
10.11145,104438
10.11405,110922
10.11667,106665
10.11927,101337
10.12187,105887
10.12448,103900
10.12708,100480
10.12970,102675
10.13230,104062
10.13490,106230
10.13752,104284
10.14012,104831
10.14273,102906
10.14533,106150
10.14793,105903
10.15055,102568
10.15315,104595
10.15577,104499
10.15837,106679
10.16097,106230
10.16358,104803
10.16618,106704
10.16880,106211
10.17140,105932
10.17400,100297
10.17662,112131
10.17922,105302
10.18183,101712
10.18443,103552
10.18703,100871
10.18965,102342
10.19225,106550
10.19487,105901
10.19747,105831
10.20008,104391
10.20268,103302
10.20528,104941
10.20790,103296
10.21050,101649
10.21312,103000
10.21572,107641
10.21832,104670
10.22093,106040
10.22353,104746
10.22615,102161
10.22875,103409
10.23135,104052
10.23397,102508
10.23657,104704
10.23918,102512
10.24178,104794
10.24438,105100
10.24700,103442
10.24960,104056
10.25222,104054
10.25482,101548
10.25742,107478
10.26003,102953
10.26263,106619
10.26525,103885
10.26785,104868
10.27045,104146
10.27307,105063
10.27567,104092
10.27828,105110
10.28088,101384
10.28350,103414
10.28610,107177
10.28870,108451
10.29132,100998
10.29392,107471
10.29653,105443
10.29913,101823
10.30173,105230
10.30435,102985
10.30695,106206
10.30957,102695
10.31217,108373
10.31477,106118
10.31738,104112
10.31998,103948
10.32260,107636
10.32520,102776
10.32780,105458
10.33042,105817
10.33302,109184
10.33563,108238
10.33823,106249
10.34083,102732
10.34345,105999
10.34605,100682
10.34867,108093
10.35127,104980
10.35387,100189
10.35648,101064
10.35908,105113
10.36170,106467
10.36430,107941
10.36692,109227
10.36952,108799
10.37212,106636
10.37473,108126
10.37733,106085
10.37995,104852
10.38255,102001
10.38515,104172
10.38777,103072
10.39037,103824
10.39298,106514
10.39558,111601
10.39818,105252
10.40080,99749
10.40340,104056
10.40602,104656
10.40862,104763
10.41122,105807
10.41383,104826
10.41643,102958
10.41905,105000
10.42165,108919
10.42425,107622
10.42687,105107
10.42947,105043
10.43208,103147
10.43468,104525
10.43728,106014
10.43990,106849
10.44250,108791
10.44512,106187
10.44772,109638
10.45033,110052
10.45293,107534
10.45553,105990
10.45815,107289
10.46075,108544
10.46337,105154
10.46597,106030
10.46857,103973
10.47118,110888
10.47378,108351
10.47640,109875
10.47900,105733
10.48160,108291
10.48422,111494
10.48682,108987
10.48943,107910
10.49203,108458
10.49463,111950
10.49725,110465
10.49985,112705
10.50247,104756
10.50507,110260
10.50767,107408
10.51028,109406
10.51288,108762
10.51550,112474
10.51810,109491
10.52070,103883
10.52332,109812
10.52592,108794
10.52853,105001
10.53113,106322
10.53375,106184
10.53635,107667
10.53895,109559
10.54157,108364
10.54417,107143
10.54678,103111
10.54938,108599
10.55198,105299
10.55460,104358
10.55720,107318
10.55982,106144
10.56242,107597
10.56502,104734
10.56763,105923
10.57023,108043
10.57285,109089
10.57545,110979
10.57805,105710
10.58067,109205
10.58327,107192
10.58588,108137
10.58848,104109
10.59108,103062
10.59370,107302
10.59630,106646
10.59892,108045
10.60152,107040
10.60412,107244
10.60673,103260
10.60933,108507
10.61195,100725
10.61455,106526
10.61717,103373
10.61977,103328
10.62237,103517
10.62498,105587
10.62758,109700
10.63020,106596
10.63280,105076
10.63540,103196
10.63802,109568
10.64062,108303
10.64323,111151
10.64583,103312
10.64843,105240
10.65105,103711
10.65365,105275
10.65627,107613
10.65887,102625
10.66147,104298
10.66408,106663
