D:\data\overige2021\rk\20200201rk_cocacase28x\B039736.D Mon Feb 01 21:58:10 2021
Start of data points
1.58965,11207
1.59225,10857
1.59487,10750
1.59747,9367
1.60008,9395
1.60268,9835
1.60528,10140
1.60790,9241
1.61050,9824
1.61312,9060
1.61572,11020
1.61832,10376
1.62093,9580
1.62353,9275
1.62615,9504
1.62875,9824
1.63135,9393
1.63397,8636
1.63657,10714
1.63918,9344
1.64178,9328
1.64438,10630
1.64700,9946
1.64960,8583
1.65222,9374
1.65482,8267
1.65743,8925
1.66003,8672
1.66263,8502
1.66525,10526
1.66785,10007
1.67047,9183
1.67307,8756
1.67567,9324
1.67828,8616
1.68088,8393
1.68350,9117
1.68610,8611
1.68870,8694
1.69132,9505
1.69392,8945
1.69653,9015
1.69913,9431
1.70173,9220
1.70435,8461
1.70695,9511
1.70957,9141
1.71217,9540
1.71477,7777
1.71738,6921
1.71998,8615
1.72260,8589
1.72520,7439
1.72780,8193
1.73042,7406
1.73302,8522
1.73563,7799
1.73823,8456
1.74085,8361
1.74345,7690
1.74605,8652
1.74867,7888
1.75127,8212
1.75388,7821
1.75648,8130
1.75908,8525
1.76170,8138
1.76430,7842
1.76692,7420
1.76952,7281
1.77212,8553
1.77473,7908
1.77733,6807
1.77995,7788
1.78255,8680
1.78515,7754
1.78777,7175
1.79037,6394
1.79298,7967
1.79558,8434
1.79818,8157
1.80080,6317
1.80340,7558
1.80602,6572
1.80862,5675
1.81122,8811
1.81383,7390
1.81643,6767
1.81905,6819
1.82165,7207
1.82427,6874
1.82687,7402
1.82947,6368
1.83208,7201
1.83468,7338
1.83730,5769
1.83990,6369
1.84250,6674
1.84512,6526
1.84772,7239
1.85033,7186
1.85293,5636
1.85553,7366
1.85815,7414
1.86075,6496
1.86337,7112
1.86597,6842
1.86857,6627
1.87118,6913
1.87378,7433
1.87640,6299
1.87900,5936
1.88160,5282
1.88422,5701
1.88682,6188
1.88943,5169
1.89203,5991
1.89463,7257
1.89725,6166
1.89985,6651
1.90247,6562
1.90507,6725
1.90768,5862
1.91028,6563
1.91288,6650
1.91550,5576
1.91810,5431
1.92072,6079
1.92332,5981
1.92592,6466
1.92853,6152
1.93113,5660
1.93375,6097
1.93635,6192
1.93895,6158
1.94157,5000
1.94417,5966
1.94678,6118
1.94938,5139
1.95198,4733
1.95460,6397
1.95720,6748
1.95982,5625
1.96242,5566
1.96502,5270
1.96763,5863
1.97023,5964
1.97285,5763
1.97545,5186
1.97805,6113
1.98067,7049
1.98327,6628
1.98588,5452
1.98848,5797
1.99110,5384
1.99370,5912
1.99630,5526
1.99892,6237
2.00152,6783
2.00413,5448
2.00673,5193
2.00933,4734
2.01195,6506
2.01455,4756
2.01717,6290
2.01977,5487
2.02237,5703
2.02498,5636
2.02758,5808
2.03020,5741
2.03280,6508
2.03540,6275
2.03802,8333
2.04062,11915
2.04323,17067
2.04583,19417
2.04843,23730
2.05105,25504
2.05365,24001
2.05627,25453
2.05887,23137
2.06147,24527
2.06408,19435
2.06668,21987
2.06930,18273
2.07190,15071
2.07452,15832
2.07712,17408
2.07972,14034
2.08233,15303
2.08493,14682
2.08755,13432
2.09015,12394
2.09275,12292
2.09537,11274
2.09797,13215
2.10058,10968
2.10318,10393
2.10578,11288
2.10840,9662
2.11100,9497
2.11362,10228
2.11622,9791
2.11882,9364
2.12143,8940
2.12403,7518
2.12665,7952
2.12925,9883
2.13185,8846
2.13447,8872
2.13707,8342
2.13968,9697
2.14228,8006
2.14488,7882
2.14750,7756
2.15010,8730
2.15272,9082
2.15532,7669
2.15793,7278
2.16053,8083
2.16313,8233
2.16575,7737
2.16835,7894
2.17097,8211
2.17357,7225
2.17617,6777
2.17878,7756
2.18138,6522
2.18400,7957
2.18660,7467
2.18920,8079
2.19182,8310
2.19442,7837
2.19703,7193
2.19963,6851
2.20223,6026
2.20485,7338
2.20745,6073
2.21007,6940
2.21267,7303
2.21527,7010
2.21788,5488
2.22048,5904
2.22310,5739
2.22570,6321
2.22830,6586
2.23092,6047
2.23352,6864
2.23613,6543
2.23873,6613
2.24135,7346
2.24395,5700
2.24655,6555
2.24917,7009
2.25177,6071
2.25438,6260
2.25698,6469
2.25958,5380
2.26220,6867
2.26480,6510
2.26742,5093
2.27002,5798
2.27262,5528
2.27523,6279
2.27783,5703
2.28045,5989
2.28305,6362
2.28565,6371
2.28827,6269
2.29087,5911
2.29348,6619
2.29608,6059
2.29868,6964
2.30130,5753
2.30390,5008
2.30652,5546
2.30912,6352
2.31172,6147
2.31433,4918
2.31693,6188
2.31955,7018
2.32215,6176
2.32477,5882
2.32737,5621
2.32997,6619
2.33258,6461
2.33518,6108
2.33780,6082
2.34040,6044
2.34300,5450
2.34562,6202
2.34822,5419
2.35083,5038
2.35343,5175
2.35603,5829
2.35865,5249
2.36125,5123
2.36387,6473
2.36647,6477
2.36907,5364
2.37168,4909
2.37428,5868
2.37690,4467
2.37950,5705
2.38210,5196
2.38472,5344
2.38732,5804
2.38993,4896
2.39253,5561
2.39513,6448
2.39775,5876
2.40035,5627
2.40297,5742
2.40557,6121
2.40818,6349
2.41078,4545
2.41338,5566
2.41600,6046
2.41860,4778
2.42122,6326
2.42382,4826
2.42642,5225
2.42903,6850
2.43163,4419
2.43425,5327
2.43685,6308
2.43945,5655
2.44207,5352
2.44467,5667
2.44728,5296
2.44988,5141
2.45248,5927
2.45510,5676
2.45770,6078
2.46032,6380
2.46292,6031
2.46552,6802
2.46813,8406
2.47073,7289
2.47335,7381
2.47595,7294
2.47855,7478
2.48117,6619
2.48377,7933
2.48638,6298
2.48898,7467
2.49160,7465
2.49420,7337
2.49680,5889
2.49942,7244
2.50202,8137
2.50463,7480
2.50723,6348
2.50983,6205
2.51245,5238
2.51505,5460
2.51767,5769
2.52027,6430
2.52287,5841
2.52548,5487
2.52808,4702
2.53070,6414
2.53330,5466
2.53590,5728
2.53852,4784
2.54112,6241
2.54373,6154
2.54633,6814
2.54893,5944
2.55155,6050
2.55415,6344
2.55677,4887
2.55937,5656
2.56197,4775
2.56458,5645
2.56718,6701
2.56980,4366
2.57240,5586
2.57502,5205
2.57762,5032
2.58022,5209
2.58283,5811
2.58543,7409
2.58805,5669
2.59065,5562
2.59325,6000
2.59587,6485
2.59847,6133
2.60108,4795
2.60368,4858
2.60628,6412
2.60890,5081
2.61150,5127
2.61412,5191
2.61672,5304
2.61932,4671
2.62193,4902
2.62453,5679
2.62715,5293
2.62975,5653
2.63235,6155
2.63497,5256
2.63757,5441
2.64018,5512
2.64278,4968
2.64538,4688
2.64800,6392
2.65060,4950
2.65322,5511
2.65582,6420
2.65843,5423
2.66103,4635
2.66363,5467
2.66625,5285
2.66885,5653
2.67147,5455
2.67407,5501
2.67667,4211
2.67928,5267
2.68188,4822
2.68450,5463
2.68710,5014
2.68970,5203
2.69232,4848
2.69492,5816
2.69753,6024
2.70013,5943
2.70273,5295
2.70535,5720
2.70795,5014
2.71057,4850
2.71317,4464
2.71577,4707
2.71838,5124
2.72098,5112
2.72360,4686
2.72620,5055
2.72880,5539
2.73142,4558
2.73402,3817
2.73663,4721
2.73923,4181
2.74185,4215
2.74445,5247
2.74705,4245
2.74967,4198
2.75227,3895
2.75488,4685
2.75748,5237
2.76008,5192
2.76270,5280
2.76530,4951
2.76792,4888
2.77052,5474
2.77312,4953
2.77573,4889
2.77833,4238
2.78095,5496
2.78355,5425
2.78615,4752
2.78877,4977
2.79137,5127
2.79398,5005
2.79658,5219
2.79918,6047
2.80180,5205
2.80440,5297
2.80702,4676
2.80962,4862
2.81222,4908
2.81483,5807
2.81743,4959
2.82005,5429
2.82265,5945
2.82527,4856
2.82787,4982
2.83047,4627
2.83308,4622
2.83568,5000
2.83830,5769
2.84090,5313
2.84350,4104
2.84612,5082
2.84872,4647
2.85133,5829
2.85393,5268
2.85653,5301
2.85915,4073
2.86175,5182
2.86437,4855
2.86697,4132
2.86957,6390
2.87218,4566
2.87478,5614
2.87740,4031
2.88000,5299
2.88260,5170
2.88522,4900
2.88782,4365
2.89043,4381
2.89303,4861
2.89563,5442
2.89825,5209
2.90085,5934
2.90347,5376
2.90607,5092
2.90868,5087
2.91128,4798
2.91388,4997
2.91650,4549
2.91910,4497
2.92172,4613
2.92432,4331
2.92692,4290
2.92953,6064
2.93213,5222
2.93475,4922
2.93735,5215
2.93995,6180
2.94257,5806
2.94517,4208
2.94778,4560
2.95038,4587
2.95298,3751
2.95560,5196
2.95820,3784
2.96082,4348
2.96342,5777
2.96602,5407
2.96863,5102
2.97123,4616
2.97385,4393
2.97645,4151
2.97905,6020
2.98167,4818
2.98427,4212
2.98688,5076
2.98948,5038
2.99210,4545
2.99470,5373
2.99730,5371
2.99992,4934
3.00252,4359
3.00513,5396
3.00773,3799
3.01033,5319
3.01295,3990
3.01555,4744
3.01817,4631
3.02077,3964
3.02337,5247
3.02598,4864
3.02858,4872
3.03120,5032
3.03380,4522
3.03640,3127
3.03902,5355
3.04162,4795
3.04423,4189
3.04683,5234
3.04943,4570
3.05205,5121
3.05465,5562
3.05727,5865
3.05987,6253
3.06247,4566
3.06508,4498
3.06768,4187
3.07030,4828
3.07290,5069
3.07552,4221
3.07812,4401
3.08072,3864
3.08333,4600
3.08593,4744
3.08855,4106
3.09115,4758
3.09375,4395
3.09637,4001
3.09897,4230
3.10158,4449
3.10418,5588
3.10678,4796
3.10940,5629
3.11200,4371
3.11462,5603
3.11722,4701
3.11982,5274
3.12243,4474
3.12503,4487
3.12765,4296
3.13025,4840
3.13285,4999
3.13547,4790
3.13807,5972
3.14068,6075
3.14328,8158
3.14588,8025
3.14850,9052
3.15110,10117
3.15372,10244
3.15632,10662
3.15893,9553
3.16153,9968
3.16413,9324
3.16675,9304
3.16935,9369
3.17197,9497
3.17457,9811
3.17717,8939
3.17978,9556
3.18238,11055
3.18500,7277
3.18760,9874
3.19020,9387
3.19282,8626
3.19542,9288
3.19803,6435
3.20063,7939
3.20323,7494
3.20585,6757
3.20845,8710
3.21107,7790
3.21367,7110
3.21627,7803
3.21888,7657
3.22148,6984
3.22410,8460
3.22670,7563
3.22930,7155
3.23192,8018
3.23452,6521
3.23713,5735
3.23973,5984
3.24235,7150
3.24495,6006
3.24755,7122
3.25017,6411
3.25277,6494
3.25538,6847
3.25798,7549
3.26058,5838
3.26320,5750
3.26580,6361
3.26842,6468
3.27102,5940
3.27362,5511
3.27623,6529
3.27883,6491
3.28145,7270
3.28405,6857
3.28665,6753
3.28927,6538
3.29187,6612
3.29448,5136
3.29708,6158
3.29968,5905
3.30230,6376
3.30490,5898
3.30752,6677
3.31012,6173
3.31272,6334
3.31533,4974
3.31793,7010
3.32055,6473
3.32315,6557
3.32577,5156
3.32837,6634
3.33097,6044
3.33358,6419
3.33618,5981
3.33880,6797
3.34140,6455
3.34400,7004
3.34662,5301
3.34922,5514
3.35183,5594
3.35443,6235
3.35703,5588
3.35965,6789
3.36225,5533
3.36487,5122
3.36747,6147
3.37007,6561
3.37268,6199
3.37528,6002
3.37790,5323
3.38050,5545
3.38310,6513
3.38572,6145
3.38832,5713
3.39093,5273
3.39353,5870
3.39613,4427
3.39875,5186
3.40135,5583
3.40397,5989
3.40657,7110
3.40918,6603
3.41178,6992
3.41438,7634
3.41700,6511
3.41960,8091
3.42222,6508
3.42482,7530
3.42742,6030
3.43003,7336
3.43263,5650
3.43525,6515
3.43785,7410
3.44045,6292
3.44307,6488
3.44567,7285
3.44828,7211
3.45088,6205
3.45348,5650
3.45610,6177
3.45870,6496
3.46132,6199
3.46392,6468
3.46652,8714
3.46913,5377
3.47173,5371
3.47435,6104
3.47695,6246
3.47955,6064
3.48217,5684
3.48477,5811
3.48738,6963
3.48998,5768
3.49260,5219
3.49520,5814
3.49780,6153
3.50042,5863
3.50302,6153
3.50563,5400
3.50823,5923
3.51083,8071
3.51345,9832
3.51605,16449
3.51867,26732
3.52127,41975
3.52387,55792
3.52648,56204
3.52908,48372
3.53170,39052
3.53430,27338
3.53690,21172
3.53952,17785
3.54212,13677
3.54473,13960
3.54733,13586
3.54993,11221
3.55255,12389
3.55515,12137
3.55777,9810
3.56037,10969
3.56297,12471
3.56558,12276
3.56818,10749
3.57080,10562
3.57340,10539
3.57602,8693
3.57862,10204
3.58122,8483
3.58383,9571
3.58643,9733
3.58905,10861
3.59165,10651
3.59425,12709
3.59687,12845
3.59947,13788
3.60208,12336
3.60468,11760
3.60728,11030
3.60990,12602
3.61250,9648
3.61512,11420
3.61772,10943
3.62032,10892
3.62293,9719
3.62553,11723
3.62815,10273
3.63075,9424
3.63335,11261
3.63597,11161
3.63857,12789
3.64118,16724
3.64378,13631
3.64638,13171
3.64900,11153
3.65160,11738
3.65422,12060
3.65682,10943
3.65943,11477
3.66203,10288
3.66463,10707
3.66725,10725
3.66985,11502
3.67247,11415
3.67507,11386
3.67767,9757
3.68028,8972
3.68288,9761
3.68550,9739
3.68810,10097
3.69070,9827
3.69332,10326
3.69592,9009
3.69853,10424
3.70113,9437
3.70373,9556
3.70635,8996
3.70895,11310
3.71157,10651
3.71417,9602
3.71677,9179
3.71938,9752
3.72198,10556
3.72460,11203
3.72720,9989
3.72980,8938
3.73242,9548
3.73502,9972
3.73763,9779
3.74023,8871
3.74285,10671
3.74545,10259
3.74805,8399
3.75067,9542
3.75327,10534
3.75588,8483
3.75848,7742
3.76108,10482
3.76370,11032
3.76630,8020
3.76892,10683
3.77152,8766
3.77412,10206
3.77673,9491
3.77933,9138
3.78195,9625
3.78455,9752
3.78715,8578
3.78977,8873
3.79237,8797
3.79498,9695
3.79758,11005
3.80018,9979
3.80280,10510
3.80540,10843
3.80802,10947
3.81062,10625
3.81322,9652
3.81583,9070
3.81843,11391
3.82105,10360
3.82365,8828
3.82627,8524
3.82887,9639
3.83147,8410
3.83408,8574
3.83668,10649
3.83930,8693
3.84190,8561
3.84450,9317
3.84712,8540
3.84972,8135
3.85233,10627
3.85493,10467
3.85753,9618
3.86015,10033
3.86275,8560
3.86537,7969
3.86797,7531
3.87057,9056
3.87318,9791
3.87578,9588
3.87840,7791
3.88100,9445
3.88360,8385
3.88622,9201
3.88882,9893
3.89143,8867
3.89403,9833
3.89663,9386
3.89925,8353
3.90185,11294
3.90447,9407
3.90707,8980
3.90968,9239
3.91228,9081
3.91488,10010
3.91750,10885
3.92010,10252
3.92272,9801
3.92532,10589
3.92792,10420
3.93053,10786
3.93313,12786
3.93575,15914
3.93835,16860
3.94095,14983
3.94357,12688
3.94617,12087
3.94878,11974
3.95138,11071
3.95398,12029
3.95660,8964
3.95920,11065
3.96182,11001
3.96442,10703
3.96702,8753
3.96963,10128
3.97223,10203
3.97485,9870
3.97745,10269
3.98005,8847
3.98267,10020
3.98527,9647
3.98788,9523
3.99048,8747
3.99310,10498
3.99570,9591
3.99830,8201
4.00092,10053
4.00352,9811
4.00613,8280
4.00873,9833
4.01133,9425
4.01395,7381
4.01655,9833
4.01917,7458
4.02177,10970
4.02437,9597
4.02698,8694
4.02958,8668
4.03220,10360
4.03480,9716
4.03740,8135
4.04002,8858
4.04262,9107
4.04523,9380
4.04783,8243
4.05043,9403
4.05305,10881
4.05565,9004
4.05827,10183
4.06087,9731
4.06347,9744
4.06608,9867
4.06868,9380
4.07130,8226
4.07390,8980
4.07652,8827
4.07912,7674
4.08172,9808
4.08433,9534
4.08693,8581
4.08955,8758
4.09215,9797
4.09475,8302
4.09737,9521
4.09997,9278
4.10258,8207
4.10518,8850
4.10778,8793
4.11040,9793
4.11300,9059
4.11562,8626
4.11822,7766
4.12082,9470
4.12343,8633
4.12603,9220
4.12865,9586
4.13125,11033
4.13385,11302
4.13647,10511
4.13907,9878
4.14168,8340
4.14428,7776
4.14688,8722
4.14950,9790
4.15210,8370
4.15472,7978
4.15732,9155
4.15993,8911
4.16253,8608
4.16513,9032
4.16775,8489
4.17035,8647
4.17297,9806
4.17557,9533
4.17817,9292
4.18078,9071
4.18338,8048
4.18600,8219
4.18860,8479
4.19120,9231
4.19382,7779
4.19642,8469
4.19903,10183
4.20163,8768
4.20423,8398
4.20685,8581
4.20945,7873
4.21207,9139
4.21467,9249
4.21727,8515
4.21988,8288
4.22248,9466
4.22510,9443
4.22770,8352
4.23030,8544
4.23292,8592
4.23552,8410
4.23813,9236
4.24073,7780
4.24335,10185
4.24595,8529
4.24855,8192
4.25117,7833
4.25377,8240
4.25638,8128
4.25898,9107
4.26158,9076
4.26420,9272
4.26680,9183
4.26942,7159
4.27202,10181
4.27462,9459
4.27723,8758
4.27983,8663
4.28245,8974
4.28505,7970
4.28765,8611
4.29027,9086
4.29287,9484
4.29548,8569
4.29808,8185
4.30068,8550
4.30330,8771
4.30590,7802
4.30852,9502
4.31112,8326
4.31372,9561
4.31633,7893
4.31893,9772
4.32155,9452
4.32415,8595
4.32677,7997
4.32937,7848
4.33197,8595
4.33458,9914
4.33718,8941
4.33980,9768
4.34240,8587
4.34500,8053
4.34762,7501
4.35022,9281
4.35283,8205
4.35543,9596
4.35803,8198
4.36065,9272
4.36325,8347
4.36587,9247
4.36847,8491
4.37107,9230
4.37368,8473
4.37628,9101
4.37890,8993
4.38150,9017
4.38410,8919
4.38672,7756
4.38932,9725
4.39193,8829
4.39453,8633
4.39713,10005
4.39975,8609
4.40235,9506
4.40497,9229
4.40757,9516
4.41018,10085
4.41278,8736
4.41538,10174
4.41800,9597
4.42060,9996
4.42322,8403
4.42582,8373
4.42842,9106
4.43103,8435
4.43363,9062
4.43625,8943
4.43885,9317
4.44145,9269
4.44407,9167
4.44667,8511
4.44928,9607
4.45188,9885
4.45448,8829
4.45710,9021
4.45970,8655
4.46232,8532
4.46492,8610
4.46752,9095
4.47013,8689
4.47273,8129
4.47535,7904
4.47795,9237
4.48055,8273
4.48317,8627
4.48577,7630
4.48838,8234
4.49098,9266
4.49360,7510
4.49620,8754
4.49880,9742
4.50142,7739
4.50402,9309
4.50663,7107
4.50923,7848
4.51183,8880
4.51445,9018
4.51705,8596
4.51967,8327
4.52227,9174
4.52487,8183
4.52748,9506
4.53008,10408
4.53270,6865
4.53530,9192
4.53790,9762
4.54052,8954
4.54312,9008
4.54573,7944
4.54833,11191
4.55093,8845
4.55355,9044
4.55615,8016
4.55877,8546
4.56137,9693
4.56398,9487
4.56658,8974
4.56918,9136
4.57180,7156
4.57440,8455
4.57702,7805
4.57962,9695
4.58222,8496
4.58483,8100
4.58743,8055
4.59005,6833
4.59265,9304
4.59525,8719
4.59787,7566
4.60047,7277
4.60308,8135
4.60568,8284
4.60828,8798
4.61090,9068
4.61350,9032
4.61612,9678
4.61872,8803
4.62132,10323
4.62393,7348
4.62653,7041
4.62915,9017
4.63175,9960
4.63435,7670
4.63697,7776
4.63957,8104
4.64218,9377
4.64478,9221
4.64740,7589
4.65000,8740
4.65260,8618
4.65522,8442
4.65782,8434
4.66043,9631
4.66303,8965
4.66563,7659
4.66825,8731
4.67085,8557
4.67347,7926
4.67607,9262
4.67867,9371
4.68128,8507
4.68388,8454
4.68650,9067
4.68910,9032
4.69170,7014
4.69432,7873
4.69692,8529
4.69953,7315
4.70213,7927
4.70473,8290
4.70735,8922
4.70995,9441
4.71257,8485
4.71517,8837
4.71777,9414
4.72038,9869
4.72298,8889
4.72560,9081
4.72820,8630
4.73082,7465
4.73342,9587
4.73602,8176
4.73863,9528
4.74123,9572
4.74385,8874
4.74645,9024
4.74905,8516
4.75167,8852
4.75427,9232
4.75688,8929
4.75948,7677
4.76208,8598
4.76470,8001
4.76730,8429
4.76992,9042
4.77252,8564
4.77512,8588
4.77773,7747
4.78033,8990
4.78295,9695
4.78555,8544
4.78815,8286
4.79077,9468
4.79337,8458
4.79598,8039
4.79858,10255
4.80118,8491
4.80380,9403
4.80640,9910
4.80902,9514
4.81162,8110
4.81423,8398
4.81683,7687
4.81943,10105
4.82205,8475
4.82465,8643
4.82727,10996
4.82987,8143
4.83247,8649
4.83508,8408
4.83768,7288
4.84030,8540
4.84290,6753
4.84550,8050
4.84812,8409
4.85072,9177
4.85333,10839
4.85593,9435
4.85853,9711
4.86115,9655
4.86375,7910
4.86637,9425
4.86897,8659
4.87157,9046
4.87418,9181
4.87678,8837
4.87940,8265
4.88200,9547
4.88460,8950
4.88722,8689
4.88982,9480
4.89243,9112
4.89503,9193
4.89765,9062
4.90025,9800
4.90285,9860
4.90547,9319
4.90807,8737
4.91068,8110
4.91328,9444
4.91588,8948
4.91850,8452
4.92110,8658
4.92372,8092
4.92632,9110
4.92892,8470
4.93153,9275
4.93413,8420
4.93675,8995
4.93935,8523
4.94195,10277
4.94457,8629
4.94717,9214
4.94978,8386
4.95238,8145
4.95498,8489
4.95760,8906
4.96020,8911
4.96282,8670
4.96542,8478
4.96802,8281
4.97063,9363
4.97323,9094
4.97585,8766
4.97845,9546
4.98107,8430
4.98367,9956
4.98627,8037
4.98888,7922
4.99148,8980
4.99410,8715
4.99670,8395
4.99930,7973
5.00192,9108
5.00452,8350
5.00713,9285
5.00973,8363
5.01233,9498
5.01495,8375
5.01755,9436
5.02017,8309
5.02277,8492
5.02537,9007
5.02798,9231
5.03058,9324
5.03320,7963
5.03580,9125
5.03840,8233
5.04102,9267
5.04362,8001
5.04623,8294
5.04883,8577
5.05143,9310
5.05405,9284
5.05665,8493
5.05927,8625
5.06187,8529
5.06448,8637
5.06708,9375
5.06968,10197
5.07230,9035
5.07490,9475
5.07752,9325
5.08012,10069
5.08272,9756
5.08533,10139
5.08793,9348
5.09055,9348
5.09315,9487
5.09575,9003
5.09837,8580
5.10097,10558
5.10358,10003
5.10618,8369
5.10878,10433
5.11140,8779
5.11400,7564
5.11662,9390
5.11922,8683
5.12182,8482
5.12443,8768
5.12703,8538
5.12965,7821
5.13225,7733
5.13485,8959
5.13747,8517
5.14007,7984
5.14268,7914
5.14528,9052
5.14790,9450
5.15050,9407
5.15310,9850
5.15572,10292
5.15832,10181
5.16093,9850
5.16353,8200
5.16613,8616
5.16875,8737
5.17135,8501
5.17397,8740
5.17657,8083
5.17917,8162
5.18178,8617
5.18438,7849
5.18700,8526
5.18960,8779
5.19220,8412
5.19482,8220
5.19742,7948
5.20003,10052
5.20263,8104
5.20523,8040
5.20785,9029
5.21045,8621
5.21307,8316
5.21567,9711
5.21827,9228
5.22088,8230
5.22348,9226
5.22610,9031
5.22870,9248
5.23132,9841
5.23392,9573
5.23652,9343
5.23913,10003
5.24173,8953
5.24435,7661
5.24695,9175
5.24955,9299
5.25217,9164
5.25477,8815
5.25738,9736
5.25998,7781
5.26258,9781
5.26520,8980
5.26780,9247
5.27042,8204
5.27302,8856
5.27562,9442
5.27823,8462
5.28083,8361
5.28345,9604
5.28605,9353
5.28865,9534
5.29127,9954
5.29387,9686
5.29648,7864
5.29908,8899
5.30168,8909
5.30430,7896
5.30690,8889
5.30952,8970
5.31212,10081
5.31473,8446
5.31733,8708
5.31993,10251
5.32255,8373
5.32515,9489
5.32777,9251
5.33037,8902
5.33297,9854
5.33558,10213
5.33818,10145
5.34080,9854
5.34340,9903
5.34600,8280
5.34862,9211
5.35122,7978
5.35383,8778
5.35643,9849
5.35903,7086
5.36165,9027
5.36425,8254
5.36687,9396
5.36947,10058
5.37207,8975
5.37468,8814
5.37728,8130
5.37990,8259
5.38250,9309
5.38510,8943
5.38772,9644
5.39032,10387
5.39293,9257
5.39553,9173
5.39815,8692
5.40075,9155
5.40335,9812
5.40597,7988
5.40857,9423
5.41118,8789
5.41378,8991
5.41638,8793
5.41900,8655
5.42160,8716
5.42422,8505
5.42682,10092
5.42942,9265
5.43203,9170
5.43463,10262
5.43725,8647
5.43985,8663
5.44245,7923
5.44507,8776
5.44767,10775
5.45028,10793
5.45288,12733
5.45548,13221
5.45810,14163
5.46070,12952
5.46332,14603
5.46592,14019
5.46852,11397
5.47113,10070
5.47373,10464
5.47635,10122
5.47895,10664
5.48157,10219
5.48417,10058
5.48677,10734
5.48938,9787
5.49198,9069
5.49460,10208
5.49720,10129
5.49980,9543
5.50242,9989
5.50502,11216
5.50763,9298
5.51023,9546
5.51283,9439
5.51545,8555
5.51805,10482
5.52067,9026
5.52327,8549
5.52587,7754
5.52848,9652
5.53108,9720
5.53370,8892
5.53630,9997
5.53890,9895
5.54152,8137
5.54412,9565
5.54673,10377
5.54933,8002
5.55193,11076
5.55455,8813
5.55715,10129
5.55977,8219
5.56237,9544
5.56498,9519
5.56758,8454
5.57018,9533
5.57280,9875
5.57540,8970
5.57802,9008
5.58062,8771
5.58322,9903
5.58583,9038
5.58843,10428
5.59105,8420
5.59365,9390
5.59625,9449
5.59887,9533
5.60147,10484
5.60408,10088
5.60668,9548
5.60928,10056
5.61190,8896
5.61450,8165
5.61712,8931
5.61972,9479
5.62232,9735
5.62493,8682
5.62753,9596
5.63015,9688
5.63275,9719
5.63535,9778
5.63797,9808
5.64057,8273
5.64318,8683
5.64578,8405
5.64840,8725
5.65100,10449
5.65360,9370
5.65622,9160
5.65882,9340
5.66143,9876
5.66403,10320
5.66663,9030
5.66925,9910
5.67185,9542
5.67447,10695
5.67707,10396
5.67967,10064
5.68228,10335
5.68488,8138
5.68750,8653
5.69010,9098
5.69270,8556
5.69532,8857
5.69792,10107
5.70053,10486
5.70313,15915
5.70573,13777
5.70835,11704
5.71095,11325
5.71357,12087
5.71617,11162
5.71877,10073
5.72138,9188
5.72398,9562
5.72660,11099
5.72920,10085
5.73182,9371
5.73442,9258
5.73702,9129
5.73963,9801
5.74223,9206
5.74485,9958
5.74745,8897
5.75005,9374
5.75267,8781
5.75527,9972
5.75788,8413
5.76048,10227
5.76308,9724
5.76570,10963
5.76830,9666
5.77092,9066
5.77352,9532
5.77612,9534
5.77873,8743
5.78133,9618
5.78395,8784
5.78655,9837
5.78915,10208
5.79177,9999
5.79437,9482
5.79698,10426
5.79958,10431
5.80218,11461
5.80480,10905
5.80740,11833
5.81002,10595
5.81262,14028
5.81523,20198
5.81783,26395
5.82043,36408
5.82305,45844
5.82565,40623
5.82827,30533
5.83087,23872
5.83347,15954
5.83608,14971
5.83868,15298
5.84130,16898
5.84390,19182
5.84650,18088
5.84912,18346
5.85172,15589
5.85433,14113
5.85693,11290
5.85953,9924
5.86215,10029
5.86475,11196
5.86737,10030
5.86997,10716
5.87257,9462
5.87518,9885
5.87778,9578
5.88040,11064
5.88300,11538
5.88560,9460
5.88822,10718
5.89082,9750
5.89343,10507
5.89603,10020
5.89865,9880
5.90125,11349
5.90385,10702
5.90647,11599
5.90907,10320
5.91168,10071
5.91428,10386
5.91688,10372
5.91950,11047
5.92210,9691
5.92472,10464
5.92732,9203
5.92992,10885
5.93253,12038
5.93513,12481
5.93775,14281
5.94035,14587
5.94295,12988
5.94557,13373
5.94817,13451
5.95078,12066
5.95338,12209
5.95598,12253
5.95860,12294
5.96120,11806
5.96382,11978
5.96642,13705
5.96902,12728
5.97163,11520
5.97423,11260
5.97685,11017
5.97945,11849
5.98207,11248
5.98467,11786
5.98727,11806
5.98988,11868
5.99248,13279
5.99510,12237
5.99770,12252
6.00030,12029
6.00292,11818
6.00552,10105
6.00813,12355
6.01073,11993
6.01333,10693
6.01595,10976
6.01855,14152
6.02117,11237
6.02377,10634
6.02637,11017
6.02898,11547
6.03158,10246
6.03420,11707
6.03680,11687
6.03940,13839
6.04202,12598
6.04462,14188
6.04723,17131
6.04983,19198
6.05243,22467
6.05505,22830
6.05765,20202
6.06027,19495
6.06287,19373
6.06548,18839
6.06808,17060
6.07068,17056
6.07330,16519
6.07590,14118
6.07852,14243
6.08112,14375
6.08372,13158
6.08633,13525
6.08893,10716
6.09155,13512
6.09415,12494
6.09675,11681
6.09937,12547
6.10197,12108
6.10458,14326
6.10718,11004
6.10978,13544
6.11240,11395
6.11500,14265
6.11762,13475
6.12022,14483
6.12282,12078
6.12543,15790
6.12803,13764
6.13065,13803
6.13325,13873
6.13585,15037
6.13847,13971
6.14107,13210
6.14368,12588
6.14628,11131
6.14890,13124
6.15150,12052
6.15410,12797
6.15672,12193
6.15932,11199
6.16193,11927
6.16453,13057
6.16713,12728
6.16975,11360
6.17235,14259
6.17497,12881
6.17757,14102
6.18017,12369
6.18278,12345
6.18538,12714
6.18800,10660
6.19060,12630
6.19320,11352
6.19582,11834
6.19842,10048
6.20103,12428
6.20363,10230
6.20623,11677
6.20885,12244
6.21145,11580
6.21407,10860
6.21667,11092
6.21927,12861
6.22188,11107
6.22448,13497
6.22710,12419
6.22970,11157
6.23232,11509
6.23492,10579
6.23752,11060
6.24013,11831
6.24273,10702
6.24535,10959
6.24795,11204
6.25055,11149
6.25317,11209
6.25577,12211
6.25838,11802
6.26098,12067
6.26358,10169
6.26620,12219
6.26880,9918
6.27142,10121
6.27402,10672
6.27662,12289
6.27923,11444
6.28183,12454
6.28445,12044
6.28705,10607
6.28965,12452
6.29227,12505
6.29487,10835
6.29748,10534
6.30008,11755
6.30268,11114
6.30530,11699
6.30790,12073
6.31052,11880
6.31312,12984
6.31573,10934
6.31833,11333
6.32093,11291
6.32355,10448
6.32615,11089
6.32877,11144
6.33137,10851
6.33397,12388
6.33658,9753
6.33918,12359
6.34180,10032
6.34440,11688
6.34700,13289
6.34962,10824
6.35222,13272
6.35483,13494
6.35743,10295
6.36003,10644
6.36265,12370
6.36525,10886
6.36787,11120
6.37047,11000
6.37307,10524
6.37568,12343
6.37828,10347
6.38090,9561
6.38350,10607
6.38610,11502
6.38872,12485
6.39132,11031
6.39393,10873
6.39653,11759
6.39915,11301
6.40175,12977
6.40435,13841
6.40697,13316
6.40957,12688
6.41218,13277
6.41478,12583
6.41738,11541
6.42000,12193
6.42260,11325
6.42522,11591
6.42782,12038
6.43042,11810
6.43303,11938
6.43563,11997
6.43825,11162
6.44085,10958
6.44345,11730
6.44607,10841
6.44867,12434
6.45128,12311
6.45388,11476
6.45648,11870
6.45910,10992
6.46170,10926
6.46432,11690
6.46692,9791
6.46952,11115
6.47213,10829
6.47473,10856
6.47735,12869
6.47995,12442
6.48257,12834
6.48517,11290
6.48777,11678
6.49038,13366
6.49298,18758
6.49560,40657
6.49820,92389
6.50080,191126
6.50342,349264
6.50602,503775
6.50863,539750
6.51123,430662
6.51383,263595
6.51645,144629
6.51905,88533
6.52167,63781
6.52427,54071
6.52687,46053
6.52948,41730
6.53208,36499
6.53470,32261
6.53730,30122
6.53990,29464
6.54252,25485
6.54512,25456
6.54773,22855
6.55033,24434
6.55293,22141
6.55555,22993
6.55815,24399
6.56077,19445
6.56337,19658
6.56598,19727
6.56858,19923
6.57118,20863
6.57380,19427
6.57640,16754
6.57902,19633
6.58162,18076
6.58422,19959
6.58683,25800
6.58943,64789
6.59205,222841
6.59465,821216
6.59725,2672680
6.59987,6392234
6.60247,1.1535E+07
6.60508,1.741199E+07
6.60768,2.342615E+07
6.61028,2.906759E+07
6.61290,3.355859E+07
6.61550,3.720832E+07
6.61812,3.541418E+07
6.62072,2.382442E+07
6.62332,8597864
6.62593,1995859
6.62853,613314
6.63115,323919
6.63375,230751
6.63635,181119
6.63897,149226
6.64157,126631
6.64418,114817
6.64678,98981
6.64940,90404
6.65200,81186
6.65460,76085
6.65722,72091
6.65982,65537
6.66243,63274
6.66503,59162
6.66763,55728
6.67025,53785
6.67285,53458
6.67547,50295
6.67807,48180
6.68067,44835
6.68328,40953
6.68588,41070
6.68850,39183
6.69110,37754
6.69370,40092
6.69632,36373
6.69892,36274
6.70153,35149
6.70413,34445
6.70673,37444
6.70935,33782
6.71195,31719
6.71457,31956
6.71717,30099
6.71977,30809
6.72238,29275
6.72498,28942
6.72760,29125
6.73020,28899
6.73282,27169
6.73542,26460
6.73802,27572
6.74063,27824
6.74323,26137
6.74585,27723
6.74845,24706
6.75105,27415
6.75367,26798
6.75627,25265
6.75888,25130
6.76148,25599
6.76408,27393
6.76670,26940
6.76930,28629
6.77192,27708
6.77452,26550
6.77712,25238
6.77973,24127
6.78233,23021
6.78495,23122
6.78755,22248
6.79015,23197
6.79277,22455
6.79537,23247
6.79798,19447
6.80058,21211
6.80318,21800
6.80580,19149
6.80840,18429
6.81102,23020
6.81362,19624
6.81623,20128
6.81883,20357
6.82143,19574
6.82405,20108
6.82665,19823
6.82927,21467
6.83187,21376
6.83447,19542
6.83708,20212
6.83968,18641
6.84230,20222
6.84490,18571
6.84750,18455
6.85012,21869
6.85272,19100
6.85533,18366
6.85793,18599
6.86053,23753
6.86315,26817
6.86575,29139
6.86837,29104
6.87097,31561
6.87357,29900
6.87618,28457
6.87878,29521
6.88140,24983
6.88400,26891
6.88660,26254
6.88922,23495
6.89182,22688
6.89443,21571
6.89703,22831
6.89965,20800
6.90225,21145
6.90485,21441
6.90747,20211
6.91007,22581
6.91268,18825
6.91528,19965
6.91788,20300
6.92050,19153
6.92310,18493
6.92572,20687
6.92832,22928
6.93092,23650
6.93353,26407
6.93613,31653
6.93875,31979
6.94135,28017
6.94395,24551
6.94657,23211
6.94917,22861
6.95178,18634
6.95438,20860
6.95698,20316
6.95960,20509
6.96220,19463
6.96482,20463
6.96742,18744
6.97002,19122
6.97263,18021
6.97523,18816
6.97785,20352
6.98045,17480
6.98307,17727
6.98567,18995
6.98827,20415
6.99088,18333
6.99348,17824
6.99610,18544
6.99870,18642
7.00130,18302
7.00392,19341
7.00652,19519
7.00913,17735
7.01173,17325
7.01433,17816
7.01695,19911
7.01955,17099
7.02217,18818
7.02477,17300
7.02737,17059
7.02998,17479
7.03258,17940
7.03520,19170
7.03780,18802
7.04040,16381
7.04302,17389
7.04562,17583
7.04823,19540
7.05083,17555
7.05343,18687
7.05605,19735
7.05865,18634
7.06127,20194
7.06387,17988
7.06648,18817
7.06908,18058
7.07168,19211
7.07430,17088
7.07690,17700
7.07952,19662
7.08212,19212
7.08472,16081
7.08733,16913
7.08993,16259
7.09255,17135
7.09515,18939
7.09775,18535
7.10037,15555
7.10297,17029
7.10558,16815
7.10818,15742
7.11078,17368
7.11340,17288
7.11600,14699
7.11862,15554
7.12122,15256
7.12382,16857
7.12643,18321
7.12903,15794
7.13165,19353
7.13425,15913
7.13685,16115
7.13947,17618
7.14207,20055
7.14468,26640
7.14728,38190
7.14990,50008
7.15250,55514
7.15510,50985
7.15772,40263
7.16032,29452
7.16293,24062
7.16553,21042
7.16813,20584
7.17075,19129
7.17335,19518
7.17597,19311
7.17857,18430
7.18117,17672
7.18378,18725
7.18638,19444
7.18900,18609
7.19160,20518
7.19420,17820
7.19682,19428
7.19942,18316
7.20203,18887
7.20463,19041
7.20723,19874
7.20985,18451
7.21245,23938
7.21507,22457
7.21767,20979
7.22027,19909
7.22288,19649
7.22548,18924
7.22810,20173
7.23070,18493
7.23332,19483
7.23592,20249
7.23852,21514
7.24113,19562
7.24373,19140
7.24635,19822
7.24895,18908
7.25155,20377
7.25417,18515
7.25677,19412
7.25938,18286
7.26198,17169
7.26458,17877
7.26720,18232
7.26980,16910
7.27242,18127
7.27502,17666
7.27762,16866
7.28023,17679
7.28283,19914
7.28545,18219
7.28805,17355
7.29065,18067
7.29327,17242
7.29587,18666
7.29848,18144
7.30108,17615
7.30368,18279
7.30630,21515
7.30890,17643
7.31152,19429
7.31412,17659
7.31673,18013
7.31933,17824
7.32193,18025
7.32455,17622
7.32715,19170
7.32977,19442
7.33237,20374
7.33497,17871
7.33758,18631
7.34018,16722
7.34280,18399
7.34540,17671
7.34800,17361
7.35062,15808
7.35322,17149
7.35583,17948
7.35843,18625
7.36103,19824
7.36365,17300
7.36625,18633
7.36887,17540
7.37147,18180
7.37407,20065
7.37668,19093
7.37928,17273
7.38190,17119
7.38450,18442
7.38710,19560
7.38972,17558
7.39232,17697
7.39493,17601
7.39753,18393
7.40015,17610
7.40275,18491
7.40535,19382
7.40797,17157
7.41057,20605
7.41318,18134
7.41578,18962
7.41838,19090
7.42100,20083
7.42360,19204
7.42622,16809
7.42882,18437
7.43142,17792
7.43403,18333
7.43663,19784
7.43925,18741
7.44185,16890
7.44445,17183
7.44707,18967
7.44967,17808
7.45228,17482
7.45488,18720
7.45748,19373
7.46010,18361
7.46270,18674
7.46532,18890
7.46792,18323
7.47052,19453
7.47313,17201
7.47573,19142
7.47835,20645
7.48095,19481
7.48357,17351
7.48617,20163
7.48877,18150
7.49138,20486
7.49398,21144
7.49660,20466
7.49920,21635
7.50180,21067
7.50442,21249
7.50702,18748
7.50963,18726
7.51223,18778
7.51483,19355
7.51745,26768
7.52005,37177
7.52267,58841
7.52527,78208
7.52787,97424
7.53048,92455
7.53308,80900
7.53570,59336
7.53830,39213
7.54090,34325
7.54352,30409
7.54612,26721
7.54873,23665
7.55133,25460
7.55393,23400
7.55655,25192
7.55915,23999
7.56177,23499
7.56437,23315
7.56698,24279
7.56958,24009
7.57218,23413
7.57480,23747
7.57740,22149
7.58002,24693
7.58262,23417
7.58522,23811
7.58783,24226
7.59043,25091
7.59305,23567
7.59565,23748
7.59825,22182
7.60087,23765
7.60347,21269
7.60608,19726
7.60868,20936
7.61128,19376
7.61390,21250
7.61650,20262
7.61912,22824
7.62172,21617
7.62432,21681
7.62693,22957
7.62953,22239
7.63215,24846
7.63475,22693
7.63735,21661
7.63997,22337
7.64257,21549
7.64518,19898
7.64778,19968
7.65040,22273
7.65300,21560
7.65560,21348
7.65822,23596
7.66082,22971
7.66343,22465
7.66603,25299
7.66863,32088
7.67125,36546
7.67385,47736
7.67647,59638
7.67907,61060
7.68167,57596
7.68428,51387
7.68688,35580
7.68950,31322
7.69210,27875
7.69470,26644
7.69732,25844
7.69992,25666
7.70253,26080
7.70513,25524
7.70773,25043
7.71035,23942
7.71295,25731
7.71557,26946
7.71817,23192
7.72077,25942
7.72338,24219
7.72598,23402
7.72860,23476
7.73120,23403
7.73382,24458
7.73642,21327
7.73902,23643
7.74163,23535
7.74423,24658
7.74685,22689
7.74945,21050
7.75205,24948
7.75467,23674
7.75727,23391
7.75988,24355
7.76248,23373
7.76508,22981
7.76770,25058
7.77030,23670
7.77292,23262
7.77552,24680
7.77812,21784
7.78073,23917
7.78333,24174
7.78595,25263
7.78855,24043
7.79115,22060
7.79377,25865
7.79637,21707
7.79898,22407
7.80158,23770
7.80418,23760
7.80680,21873
7.80940,23454
7.81202,22275
7.81462,24207
7.81723,24083
7.81983,25387
7.82243,25642
7.82505,28131
7.82765,31451
7.83027,31744
7.83287,32285
7.83547,28213
7.83808,27134
7.84068,22922
7.84330,25134
7.84590,22299
7.84850,24035
7.85112,23605
7.85372,26438
7.85633,22465
7.85893,26181
7.86153,26249
7.86415,24759
7.86675,23072
7.86937,23922
7.87197,22753
7.87457,24342
7.87718,25255
7.87978,24989
7.88240,25951
7.88500,23909
7.88760,24110
7.89022,25965
7.89282,23799
7.89543,23039
7.89803,23737
7.90065,26466
7.90325,26395
7.90585,23974
7.90847,29090
7.91107,25993
7.91368,24963
7.91628,26907
7.91888,27062
7.92150,24844
7.92410,26353
7.92672,25542
7.92932,27192
7.93192,25136
7.93453,25775
7.93713,23529
7.93975,25721
7.94235,25843
7.94495,26190
7.94757,26349
7.95017,25069
7.95278,25609
7.95538,26503
7.95798,24123
7.96060,26384
7.96320,25453
7.96582,28480
7.96842,26614
7.97102,24633
7.97363,27152
7.97623,25398
7.97885,26065
7.98145,25990
7.98407,27023
7.98667,28073
7.98927,26092
7.99188,28022
7.99448,27900
7.99710,27435
7.99970,26591
8.00230,27701
8.00492,26384
8.00752,26701
8.01013,26416
8.01273,27126
8.01533,28674
8.01795,25954
8.02055,25092
8.02317,25826
8.02577,26873
8.02837,28100
8.03098,27520
8.03358,26560
8.03620,29805
8.03880,27425
8.04140,25536
8.04402,27995
8.04662,27444
8.04923,28309
8.05183,29169
8.05443,32063
8.05705,54498
8.05965,144137
8.06227,461510
8.06487,1408384
8.06748,3952661
8.07008,8546908
8.07268,1.328751E+07
8.07530,1.803344E+07
8.07790,2.041269E+07
8.08052,1.90109E+07
8.08312,1.302449E+07
8.08572,6727220
8.08833,3395931
8.09093,2010477
8.09355,1378434
8.09615,1022569
8.09875,811568
8.10137,674525
8.10397,559164
8.10658,485550
8.10918,414187
8.11178,374488
8.11440,326212
8.11700,298613
8.11962,257917
8.12222,245042
8.12482,211429
8.12743,197376
8.13003,191498
8.13265,169710
8.13525,167729
8.13785,151982
8.14047,142041
8.14307,134035
8.14568,130258
8.14828,117688
8.15090,111399
8.15350,106565
8.15610,101321
8.15872,94079
8.16132,98284
8.16393,91209
8.16653,91684
8.16913,90173
8.17175,87779
8.17435,88241
8.17697,91492
8.17957,98107
8.18217,94305
8.18478,86062
8.18738,82822
8.19000,77716
8.19260,71692
8.19520,70629
8.19782,64061
8.20042,61487
8.20303,62988
8.20563,62722
8.20823,63461
8.21085,62792
8.21345,59304
8.21607,58700
8.21867,55315
8.22127,55163
8.22388,52821
8.22648,54397
8.22910,51188
8.23170,51209
8.23432,51230
8.23692,48543
8.23952,47414
8.24213,51902
8.24473,48183
8.24735,48129
8.24995,50174
8.25255,46160
8.25517,44264
8.25777,49263
8.26038,46431
8.26298,43947
8.26558,41886
8.26820,45732
8.27080,44532
8.27342,42808
8.27602,43764
8.27862,44982
8.28123,43339
8.28383,43572
8.28645,44993
8.28905,42744
8.29165,43856
8.29427,45893
8.29687,42425
8.29948,46091
8.30208,47717
8.30468,48437
8.30730,44418
8.30990,44894
8.31252,43876
8.31512,42817
8.31773,41709
8.32033,41076
8.32293,43595
8.32555,42002
8.32815,43557
8.33077,43026
8.33337,44553
8.33597,42025
8.33858,42990
8.34118,43682
8.34380,45223
8.34640,42210
8.34900,43022
8.35162,40528
8.35422,44785
8.35683,41893
8.35943,42595
8.36203,44953
8.36465,41390
8.36725,43407
8.36987,45003
8.37247,42544
8.37507,41527
8.37768,44177
8.38028,43625
8.38290,43411
8.38550,41053
8.38810,43115
8.39072,45929
8.39332,44509
8.39593,43480
8.39853,46174
8.40115,40638
8.40375,44765
8.40635,44106
8.40897,43616
8.41157,45079
8.41418,44167
8.41678,46241
8.41938,40386
8.42200,43271
8.42460,42915
8.42722,42834
8.42982,44317
8.43242,44484
8.43503,45321
8.43763,44958
8.44025,46409
8.44285,42549
8.44545,45287
8.44807,44549
8.45067,46009
8.45328,46832
8.45588,44974
8.45848,47479
8.46110,42957
8.46370,46765
8.46632,50448
8.46892,47373
8.47152,48083
8.47413,49326
8.47673,52980
8.47935,51430
8.48195,50522
8.48457,49708
8.48717,51352
8.48977,49886
8.49238,52139
8.49498,48115
8.49760,51354
8.50020,52159
8.50280,53516
8.50542,56757
8.50802,62534
8.51063,65623
8.51323,65419
8.51583,61999
8.51845,57763
8.52105,56606
8.52367,54572
8.52627,53543
8.52887,53777
8.53148,53566
8.53408,54155
8.53670,50836
8.53930,52564
8.54190,51850
8.54452,54831
8.54712,52517
8.54973,54942
8.55233,53611
8.55493,53747
8.55755,55741
8.56015,57173
8.56277,56705
8.56537,56842
8.56798,56941
8.57058,58110
8.57318,55660
8.57580,55222
8.57840,56800
8.58102,53666
8.58362,54779
8.58622,56260
8.58883,55069
8.59143,59518
8.59405,61095
8.59665,59297
8.59925,58879
8.60187,57433
8.60447,60240
8.60708,59795
8.60968,60665
8.61228,61739
8.61490,59994
8.61750,58601
8.62012,60710
8.62272,63988
8.62532,61524
8.62793,60378
8.63053,63705
8.63315,64177
8.63575,65521
8.63835,63280
8.64097,65242
8.64357,61408
8.64618,61230
8.64878,63180
8.65140,61763
8.65400,64687
8.65660,69012
8.65922,68598
8.66182,65500
8.66443,66318
8.66703,64772
8.66963,64147
8.67225,66143
8.67485,71412
8.67747,66229
8.68007,69285
8.68267,67525
8.68528,68222
8.68788,73131
8.69050,74049
8.69310,72786
8.69570,74316
8.69832,74625
8.70092,70240
8.70353,71190
8.70613,72573
8.70873,76560
8.71135,77974
8.71395,80330
8.71657,82038
8.71917,85367
8.72177,81953
8.72438,80510
8.72698,79888
8.72960,78850
8.73220,82129
8.73482,82778
8.73742,83773
8.74002,80981
8.74263,78085
8.74523,80827
8.74785,75331
8.75045,75466
8.75305,76979
8.75567,79108
8.75827,79773
8.76088,76033
8.76348,76573
8.76608,79291
8.76870,79291
8.77130,77047
8.77392,80413
8.77652,80300
8.77912,81739
8.78173,77028
8.78433,81677
8.78695,76798
8.78955,79759
8.79215,82177
8.79477,80517
8.79737,80489
8.79998,86103
8.80258,79303
8.80518,84170
8.80780,82738
8.81040,85167
8.81302,81807
8.81562,84838
8.81823,80950
8.82083,81590
8.82343,81819
8.82605,87669
8.82865,84554
8.83127,81779
8.83387,84979
8.83647,86460
8.83908,87158
8.84168,86540
8.84430,85583
8.84690,87257
8.84950,86134
8.85212,88870
8.85472,86806
8.85733,92039
8.85993,89150
8.86253,88822
8.86515,87293
8.86775,89142
8.87037,89457
8.87297,88276
8.87557,89412
8.87818,87320
8.88078,89744
8.88340,89101
8.88600,88854
8.88860,88690
8.89122,88930
8.89382,89349
8.89643,89599
8.89903,89920
8.90165,83794
8.90425,88969
8.90685,88452
8.90947,89675
8.91207,92994
8.91468,89572
8.91728,91166
8.91988,93751
8.92250,95269
8.92510,90919
8.92772,92814
8.93032,92278
8.93292,94104
8.93553,98083
8.93813,94143
8.94075,95754
8.94335,95086
8.94595,93179
8.94857,92707
8.95117,94509
8.95378,91110
8.95638,91324
8.95898,95227
8.96160,94536
8.96420,92809
8.96682,98243
8.96942,98427
8.97202,92970
8.97463,98743
8.97723,95443
8.97985,93373
8.98245,98551
8.98507,91608
8.98767,96380
8.99027,95774
8.99288,96208
8.99548,99453
8.99810,93936
9.00070,97606
9.00330,100607
9.00592,96142
9.00852,95708
9.01113,98464
9.01373,96823
9.01633,101099
9.01895,95820
9.02155,98734
9.02417,93403
9.02677,94569
9.02937,94476
9.03198,98451
9.03458,100145
9.03720,99168
9.03980,99927
9.04240,98907
9.04502,98705
9.04762,99312
9.05023,97753
9.05283,94109
9.05543,98489
9.05805,95167
9.06065,98363
9.06327,98586
9.06587,97422
9.06848,101234
9.07108,96341
9.07368,95634
9.07630,96373
9.07890,99503
9.08152,98968
9.08412,98125
9.08672,102462
9.08933,98161
9.09193,98219
9.09455,97148
9.09715,96271
9.09975,96830
9.10237,99277
9.10497,100442
9.10758,99341
9.11018,101182
9.11278,99007
9.11540,102003
9.11800,97405
9.12062,100946
9.12322,101166
9.12582,101565
9.12843,100546
9.13103,102230
9.13365,104517
9.13625,100177
9.13885,101032
9.14147,102581
9.14407,105440
9.14668,104432
9.14928,98375
9.15190,99941
9.15450,96979
9.15710,98136
9.15972,101016
9.16232,98103
9.16493,96950
9.16753,99416
9.17013,97014
9.17275,97883
9.17535,97936
9.17797,104651
9.18057,102385
9.18317,97867
9.18578,103142
9.18838,102150
9.19100,99168
9.19360,97630
9.19620,102632
9.19882,104976
9.20142,104343
9.20403,103961
9.20663,97336
9.20923,105978
9.21185,104317
9.21445,104200
9.21707,100841
9.21967,99046
9.22227,98612
9.22488,102485
9.22748,97843
9.23010,93779
9.23270,99598
9.23532,98389
9.23792,95845
9.24052,99587
9.24313,99044
9.24573,99760
9.24835,102472
9.25095,97007
9.25355,97699
9.25617,94896
9.25877,99473
9.26138,96583
9.26398,99311
9.26658,96904
9.26920,99880
9.27180,101054
9.27442,103669
9.27702,100136
9.27962,98554
9.28223,97146
9.28483,98004
9.28745,99963
9.29005,97254
9.29265,96199
9.29527,100724
9.29787,102128
9.30048,98349
9.30308,96791
9.30568,100171
9.30830,104279
9.31090,97790
9.31352,100510
9.31612,96207
9.31873,100230
9.32133,96671
9.32393,99563
9.32655,97608
9.32915,98310
9.33177,102865
9.33437,97876
9.33697,101092
9.33958,98100
9.34218,101123
9.34480,103200
9.34740,98015
9.35000,102093
9.35262,99591
9.35522,96397
9.35783,97862
9.36043,102483
9.36303,101547
9.36565,101239
9.36825,101716
9.37087,100188
9.37347,98675
9.37607,101389
9.37868,101391
9.38128,99781
9.38390,97729
9.38650,99634
9.38910,99390
9.39172,96910
9.39432,95922
9.39693,94798
9.39953,97608
9.40215,99992
9.40475,99216
9.40735,100517
9.40997,101838
9.41257,98493
9.41518,99409
9.41778,97066
9.42038,97872
9.42300,96983
9.42560,99223
9.42822,98692
9.43082,100962
9.43342,100632
9.43603,101931
9.43863,95171
9.44125,97185
9.44385,97515
9.44645,101898
9.44907,95727
9.45167,99455
9.45428,98444
9.45688,100396
9.45948,99141
9.46210,100311
9.46470,98179
9.46732,97526
9.46992,99542
9.47252,100274
9.47513,101860
9.47773,102824
9.48035,100081
9.48295,99663
9.48557,100212
9.48817,98474
9.49077,99802
9.49338,99696
9.49598,100024
9.49860,96411
9.50120,96549
9.50380,98425
9.50642,98944
9.50902,101739
9.51163,99252
9.51423,99894
9.51683,102050
9.51945,101932
9.52205,101269
9.52467,99231
9.52727,97802
9.52987,96998
9.53248,103060
9.53508,101831
9.53770,96683
9.54030,98573
9.54290,100947
9.54552,100010
9.54812,98458
9.55073,99876
9.55333,100842
9.55593,100321
9.55855,98354
9.56115,101476
9.56377,98157
9.56637,99539
9.56898,99768
9.57158,96738
9.57418,100678
9.57680,99130
9.57940,100014
9.58202,99531
9.58462,94153
9.58722,99476
9.58983,94099
9.59243,97527
9.59505,100709
9.59765,99403
9.60025,101234
9.60287,101193
9.60547,96153
9.60808,99983
9.61068,98756
9.61328,99890
9.61590,97150
9.61850,100212
9.62112,101422
9.62372,97355
9.62632,99789
9.62893,96768
9.63153,98050
9.63415,98826
9.63675,100344
9.63935,97036
9.64197,100058
9.64457,101561
9.64718,96757
9.64978,100454
9.65240,98391
9.65500,99594
9.65760,96341
9.66022,100979
9.66282,96981
9.66543,98922
9.66803,98499
9.67063,100901
9.67325,96313
9.67585,102204
9.67847,102634
9.68107,102230
9.68367,96335
9.68628,100518
9.68888,100303
9.69150,99287
9.69410,98387
9.69670,98467
9.69932,97929
9.70192,96761
9.70453,97592
9.70713,101391
9.70973,100284
9.71235,98219
9.71495,99810
9.71757,95910
9.72017,102996
9.72277,97957
9.72538,99162
9.72798,100293
9.73060,96300
9.73320,100484
9.73582,98376
9.73842,99254
9.74102,97553
9.74363,97088
9.74623,98533
9.74885,95292
9.75145,95077
9.75405,96356
9.75667,99406
9.75927,99347
9.76188,97268
9.76448,94996
9.76708,95110
9.76970,99275
9.77230,99494
9.77492,101563
9.77752,101331
9.78012,103810
9.78273,94608
9.78533,103529
9.78795,101469
9.79055,101412
9.79315,99100
9.79577,99022
9.79837,104670
9.80098,97248
9.80358,99320
9.80618,101872
9.80880,101571
9.81140,102985
9.81402,100964
9.81662,96899
9.81923,100181
9.82183,99984
9.82443,101192
9.82705,101319
9.82965,101498
9.83227,98917
9.83487,102962
9.83747,99090
9.84008,96021
9.84268,97184
9.84530,101602
9.84790,104871
9.85050,99746
9.85312,98286
9.85572,100182
9.85833,100290
9.86093,97187
9.86353,100248
9.86615,100665
9.86875,98547
9.87137,97148
9.87397,101985
9.87657,101166
9.87918,98221
9.88178,97363
9.88440,95548
9.88700,100016
9.88960,102350
9.89222,101717
9.89482,101207
9.89743,98571
9.90003,100131
9.90265,103009
9.90525,99573
9.90785,98767
9.91047,96500
9.91307,99443
9.91568,98587
9.91828,102466
9.92088,95884
9.92350,98683
9.92610,98795
9.92872,97794
9.93132,100729
9.93392,98679
9.93653,99094
9.93913,95269
9.94175,102414
9.94435,101224
9.94695,97487
9.94957,99293
9.95217,97362
9.95478,99488
9.95738,100439
9.95998,102493
9.96260,99711
9.96520,100818
9.96782,103383
9.97042,98488
9.97302,97721
9.97563,98765
9.97823,102173
9.98085,96946
9.98345,100757
9.98607,98052
9.98867,94579
9.99127,95951
9.99388,101316
9.99648,100510
9.99910,99147
10.00170,102004
10.00430,100808
10.00692,97599
10.00952,99878
10.01213,100429
10.01473,103369
10.01733,99749
10.01995,98469
10.02255,99239
10.02517,103839
10.02777,102838
10.03037,101541
10.03298,98924
10.03558,97182
10.03820,100709
10.04080,103847
10.04340,101793
10.04602,97739
10.04862,96752
10.05123,97179
10.05383,105589
10.05643,102127
10.05905,100479
10.06165,99434
10.06427,102087
10.06687,100140
10.06948,100367
10.07208,99036
10.07468,97821
10.07730,101379
10.07990,101951
10.08252,99935
10.08512,101232
10.08772,102151
10.09033,103115
10.09293,103828
10.09555,98956
10.09815,102407
10.10075,99789
10.10337,103421
10.10597,103730
10.10858,101559
10.11118,101812
10.11378,100292
10.11640,100353
10.11900,97413
10.12162,103927
10.12422,97636
10.12682,102151
10.12943,98943
10.13203,105221
10.13465,100314
10.13725,102222
10.13985,99564
10.14247,102992
10.14507,102158
10.14768,99581
10.15028,99941
10.15290,99285
10.15550,106231
10.15810,101391
10.16072,104014
10.16332,99426
10.16593,96889
10.16853,101742
10.17113,100835
10.17375,94474
10.17635,102354
10.17897,99630
10.18157,100803
10.18417,98611
10.18678,102232
10.18938,97471
10.19200,102920
10.19460,97864
10.19720,96531
10.19982,99453
10.20242,103517
10.20503,97791
10.20763,105657
10.21023,103339
10.21285,99769
10.21545,101299
10.21807,104115
10.22067,100024
10.22327,100078
10.22588,101836
10.22848,98606
10.23110,100442
10.23370,99211
10.23632,99307
10.23892,100644
10.24152,104005
10.24413,96670
10.24673,97527
10.24935,102792
10.25195,98935
10.25455,102256
10.25717,97184
10.25977,99464
10.26238,100682
10.26498,99632
10.26758,100393
10.27020,100556
10.27280,99094
10.27542,101396
10.27802,101696
10.28062,101931
10.28323,98406
10.28583,102456
10.28845,103812
10.29105,99548
10.29365,101447
10.29627,97804
10.29887,100876
10.30148,100380
10.30408,101138
10.30668,102473
10.30930,100712
10.31190,100774
10.31452,98862
10.31712,98319
10.31973,99866
10.32233,100511
10.32493,104695
10.32755,97339
10.33015,98514
10.33277,102035
10.33537,103227
10.33797,97373
10.34058,101454
10.34318,99012
10.34580,100451
10.34840,103116
10.35100,97935
10.35362,99700
10.35622,100120
10.35883,99630
10.36143,97183
10.36403,101155
10.36665,102977
10.36925,103398
10.37187,102377
10.37447,103598
10.37707,106067
10.37968,102644
10.38228,98285
10.38490,101236
10.38750,96703
10.39010,99363
10.39272,100380
10.39532,95559
10.39793,99294
10.40053,101215
10.40315,100169
10.40575,97515
10.40835,100192
10.41097,99236
10.41357,100400
10.41618,102785
10.41878,98548
10.42138,101429
10.42400,104199
10.42660,101458
10.42922,100407
10.43182,101075
10.43442,104397
10.43703,104669
10.43963,98976
10.44225,103167
10.44485,101579
10.44745,100272
10.45007,103551
10.45267,98016
10.45528,102559
10.45788,105449
10.46048,102014
10.46310,110718
10.46570,107065
10.46832,104311
10.47092,99047
10.47352,106169
10.47613,102955
10.47873,104748
10.48135,102547
10.48395,105876
10.48657,102245
10.48917,100919
10.49177,103709
10.49438,104721
10.49698,107236
10.49960,105800
10.50220,103307
10.50480,104761
10.50742,104490
10.51002,104822
10.51263,106058
10.51523,108907
10.51783,104340
10.52045,107113
10.52305,103488
10.52567,102571
10.52827,104096
10.53087,101004
10.53348,107006
10.53608,102254
10.53870,106259
10.54130,106449
10.54390,98140
10.54652,104864
10.54912,99553
10.55173,104462
10.55433,105404
10.55693,103939
10.55955,105661
10.56215,105695
10.56477,100367
10.56737,100781
10.56998,106140
10.57258,102544
10.57518,98488
10.57780,101373
10.58040,100027
10.58302,101335
10.58562,101586
10.58822,100460
10.59083,99196
10.59343,99620
10.59605,104900
10.59865,98285
10.60125,102783
10.60387,103258
10.60647,100709
10.60908,103492
10.61168,102528
10.61428,100439
10.61690,99231
10.61950,100459
10.62212,98204
10.62472,99673
10.62732,105634
10.62993,99971
10.63253,97411
10.63515,103581
10.63775,101710
10.64035,99704
10.64297,101704
10.64557,99375
10.64818,103107
10.65078,101561
10.65340,100727
10.65600,100339
10.65860,103843
10.66122,101883
10.66382,103781
