D:\data\overige2021\rk\20200201rk_cocacase28x\B039771.D Mon Feb 01 15:51:50 2021
Start of data points
1.58973,17344
1.59233,16145
1.59495,16099
1.59755,16237
1.60015,16042
1.60277,16467
1.60537,16563
1.60798,17541
1.61058,15288
1.61318,17386
1.61580,16824
1.61840,16038
1.62102,13848
1.62362,13687
1.62622,16880
1.62883,17434
1.63143,15429
1.63405,17103
1.63665,15463
1.63925,15907
1.64187,15845
1.64447,15616
1.64708,15284
1.64968,12432
1.65228,14616
1.65490,14014
1.65750,13922
1.66012,12497
1.66272,13476
1.66532,12920
1.66793,11198
1.67053,12535
1.67315,15080
1.67575,13300
1.67837,13494
1.68097,11478
1.68357,13969
1.68618,13542
1.68878,13055
1.69140,11795
1.69400,11916
1.69660,11744
1.69922,13872
1.70182,13730
1.70443,11242
1.70703,12183
1.70963,11610
1.71225,13396
1.71485,11649
1.71747,12917
1.72007,12250
1.72267,12172
1.72528,11533
1.72788,11906
1.73050,10938
1.73310,10753
1.73570,11471
1.73832,11403
1.74092,13208
1.74353,10035
1.74613,11827
1.74873,10719
1.75135,11120
1.75395,11102
1.75657,11487
1.75917,10665
1.76178,10207
1.76438,9624
1.76698,10459
1.76960,10776
1.77220,12055
1.77482,9703
1.77742,11118
1.78002,11218
1.78263,10803
1.78523,11362
1.78785,12194
1.79045,10758
1.79305,9932
1.79567,9690
1.79827,9481
1.80088,10167
1.80348,9520
1.80608,11519
1.80870,10614
1.81130,8851
1.81392,9969
1.81652,9340
1.81912,9292
1.82173,9774
1.82433,9604
1.82695,9256
1.82955,9454
1.83215,7762
1.83477,8681
1.83737,7395
1.83998,10203
1.84258,8123
1.84520,8147
1.84780,8072
1.85040,8908
1.85302,9733
1.85562,9267
1.85823,8284
1.86083,8172
1.86343,6523
1.86605,7136
1.86865,8668
1.87127,7881
1.87387,9150
1.87647,8056
1.87908,7569
1.88168,10110
1.88430,8419
1.88690,9044
1.88950,8817
1.89212,9129
1.89472,8511
1.89733,8699
1.89993,9426
1.90253,9767
1.90515,7453
1.90775,8343
1.91037,9561
1.91297,7655
1.91557,8000
1.91818,7837
1.92078,7727
1.92340,6890
1.92600,6089
1.92862,7476
1.93122,7811
1.93382,6551
1.93643,7883
1.93903,7413
1.94165,8625
1.94425,7781
1.94685,8395
1.94947,8303
1.95207,6938
1.95468,7126
1.95728,7192
1.95988,7409
1.96250,8114
1.96510,8268
1.96772,7247
1.97032,8337
1.97292,6522
1.97553,7722
1.97813,7066
1.98075,8440
1.98335,7012
1.98595,6571
1.98857,6939
1.99117,6782
1.99378,7594
1.99638,7416
1.99898,5958
2.00160,6924
2.00420,5556
2.00682,7012
2.00942,8649
2.01203,6631
2.01463,7148
2.01723,7050
2.01985,7597
2.02245,7887
2.02507,6979
2.02767,6985
2.03027,8021
2.03288,7920
2.03548,8514
2.03810,9537
2.04070,10619
2.04330,13409
2.04592,15281
2.04852,19719
2.05113,19625
2.05373,18461
2.05633,19979
2.05895,18527
2.06155,17127
2.06417,17694
2.06677,16587
2.06937,15618
2.07198,15466
2.07458,14742
2.07720,14719
2.07980,12260
2.08240,13418
2.08502,12556
2.08762,11127
2.09023,12519
2.09283,11902
2.09545,11064
2.09805,11280
2.10065,10223
2.10327,9988
2.10587,10929
2.10848,9722
2.11108,9236
2.11368,9396
2.11630,8058
2.11890,9749
2.12152,13006
2.12412,10266
2.12672,8823
2.12933,10855
2.13193,9557
2.13455,9436
2.13715,9652
2.13975,10987
2.14237,9945
2.14497,9309
2.14758,8073
2.15018,9096
2.15278,8761
2.15540,8569
2.15800,7843
2.16062,7835
2.16322,8811
2.16583,9789
2.16843,8067
2.17103,8376
2.17365,7898
2.17625,9218
2.17887,8589
2.18147,7583
2.18407,8137
2.18668,7971
2.18928,7720
2.19190,9148
2.19450,9218
2.19710,7497
2.19972,7288
2.20232,8211
2.20493,8556
2.20753,6896
2.21013,9199
2.21275,8039
2.21535,8105
2.21797,7412
2.22057,7526
2.22317,8331
2.22578,8668
2.22838,7335
2.23100,7992
2.23360,9074
2.23620,7693
2.23882,7947
2.24142,7656
2.24403,7810
2.24663,8828
2.24925,8109
2.25185,7998
2.25445,8811
2.25707,7770
2.25967,6472
2.26228,7181
2.26488,7920
2.26748,7913
2.27010,8096
2.27270,6552
2.27532,7880
2.27792,8230
2.28052,6916
2.28313,7424
2.28573,7566
2.28835,8842
2.29095,8554
2.29355,7290
2.29617,7095
2.29877,6955
2.30138,7140
2.30398,8117
2.30658,7179
2.30920,5775
2.31180,5640
2.31442,7694
2.31702,8162
2.31962,5847
2.32223,6881
2.32483,6796
2.32745,7032
2.33005,6313
2.33267,7374
2.33527,5797
2.33787,7386
2.34048,6572
2.34308,7456
2.34570,7578
2.34830,7524
2.35090,5920
2.35352,7515
2.35612,7603
2.35873,6678
2.36133,7435
2.36393,6882
2.36655,6291
2.36915,6092
2.37177,7460
2.37437,5235
2.37697,7600
2.37958,6204
2.38218,7615
2.38480,7121
2.38740,6260
2.39000,7862
2.39262,6709
2.39522,6726
2.39783,6258
2.40043,7520
2.40303,7084
2.40565,8350
2.40825,8004
2.41087,7327
2.41347,7078
2.41608,7794
2.41868,6543
2.42128,5628
2.42390,7112
2.42650,6278
2.42912,7019
2.43172,6087
2.43432,6256
2.43693,6071
2.43953,6455
2.44215,6661
2.44475,7842
2.44735,5790
2.44997,5994
2.45257,6464
2.45518,6576
2.45778,7618
2.46038,7788
2.46300,7954
2.46560,10297
2.46822,10931
2.47082,10895
2.47342,7509
2.47603,9257
2.47863,9800
2.48125,8041
2.48385,9679
2.48645,7340
2.48907,8777
2.49167,7939
2.49428,9403
2.49688,8084
2.49950,7545
2.50210,9070
2.50470,7469
2.50732,7449
2.50992,6643
2.51253,7591
2.51513,7275
2.51773,8427
2.52035,6342
2.52295,5992
2.52557,6208
2.52817,6018
2.53077,6391
2.53338,7738
2.53598,6663
2.53860,6785
2.54120,7256
2.54380,7663
2.54642,6589
2.54902,6775
2.55163,6191
2.55423,7430
2.55683,7011
2.55945,8033
2.56205,5001
2.56467,7018
2.56727,5308
2.56987,7963
2.57248,7201
2.57508,7216
2.57770,5821
2.58030,7096
2.58292,6797
2.58552,6168
2.58812,7028
2.59073,7339
2.59333,7038
2.59595,6443
2.59855,6754
2.60115,6380
2.60377,6564
2.60637,6824
2.60898,6416
2.61158,7536
2.61418,7341
2.61680,8069
2.61940,8035
2.62202,6067
2.62462,8838
2.62722,6929
2.62983,6683
2.63243,7662
2.63505,8049
2.63765,7910
2.64025,7641
2.64287,6109
2.64547,8009
2.64808,7112
2.65068,6085
2.65328,6816
2.65590,7615
2.65850,7322
2.66112,6790
2.66372,6916
2.66633,7061
2.66893,6763
2.67153,6332
2.67415,6927
2.67675,6178
2.67937,6658
2.68197,6851
2.68457,6188
2.68718,7592
2.68978,7295
2.69240,5871
2.69500,7475
2.69760,5916
2.70022,6638
2.70282,6494
2.70543,5701
2.70803,6783
2.71063,6818
2.71325,7285
2.71585,6295
2.71847,7372
2.72107,8204
2.72367,6775
2.72628,6367
2.72888,5719
2.73150,6322
2.73410,6048
2.73670,6565
2.73932,6629
2.74192,7247
2.74453,6641
2.74713,7507
2.74975,6123
2.75235,5851
2.75495,6668
2.75757,6981
2.76017,6967
2.76278,6201
2.76538,7672
2.76798,6703
2.77060,7068
2.77320,6435
2.77582,6162
2.77842,6563
2.78102,4797
2.78363,7870
2.78623,5552
2.78885,6410
2.79145,5984
2.79405,5608
2.79667,6619
2.79927,7485
2.80188,6961
2.80448,6774
2.80708,7474
2.80970,5889
2.81230,7214
2.81492,7241
2.81752,6703
2.82012,6991
2.82273,5722
2.82533,6460
2.82795,6484
2.83055,5712
2.83317,6889
2.83577,8548
2.83837,6347
2.84098,7511
2.84358,5981
2.84620,7286
2.84880,5313
2.85140,6041
2.85402,6181
2.85662,7219
2.85923,6806
2.86183,6277
2.86443,6681
2.86705,7075
2.86965,6156
2.87227,7339
2.87487,6710
2.87747,6839
2.88008,5956
2.88268,6738
2.88530,6500
2.88790,7274
2.89050,6258
2.89312,5737
2.89572,5704
2.89833,6983
2.90093,5810
2.90353,7018
2.90615,6154
2.90875,7302
2.91137,4607
2.91397,6516
2.91658,6324
2.91918,7317
2.92178,6237
2.92440,5840
2.92700,7184
2.92962,6853
2.93222,5771
2.93482,6835
2.93743,6594
2.94003,5449
2.94265,6886
2.94525,6803
2.94785,5855
2.95047,6540
2.95307,6394
2.95568,6505
2.95828,5860
2.96088,6497
2.96350,5864
2.96610,5670
2.96872,7351
2.97132,7402
2.97392,9753
2.97653,10486
2.97913,12141
2.98175,9821
2.98435,8631
2.98695,6063
2.98957,6097
2.99217,7919
2.99478,5570
2.99738,5920
3.00000,6472
3.00260,6946
3.00520,5902
3.00782,5779
3.01042,6527
3.01303,6094
3.01563,6205
3.01823,6848
3.02085,7100
3.02345,5670
3.02607,6118
3.02867,5271
3.03127,5734
3.03388,6246
3.03648,6908
3.03910,5925
3.04170,4937
3.04430,6274
3.04692,6126
3.04952,7009
3.05213,5718
3.05473,6078
3.05733,6249
3.05995,7171
3.06255,6404
3.06517,5546
3.06777,6391
3.07037,5843
3.07298,6060
3.07558,7651
3.07820,5109
3.08080,6361
3.08342,7704
3.08602,7365
3.08862,6183
3.09123,6259
3.09383,7021
3.09645,6190
3.09905,6638
3.10165,6357
3.10427,6136
3.10687,5635
3.10948,5571
3.11208,6997
3.11468,7209
3.11730,6674
3.11990,5976
3.12252,7160
3.12512,6842
3.12772,6374
3.13033,7142
3.13293,8856
3.13555,10360
3.13815,9699
3.14075,12255
3.14337,13386
3.14597,13337
3.14858,13568
3.15118,13902
3.15378,13215
3.15640,11974
3.15900,14355
3.16162,11934
3.16422,11869
3.16683,12259
3.16943,10883
3.17203,12831
3.17465,13063
3.17725,11320
3.17987,10663
3.18247,11866
3.18507,10506
3.18768,11067
3.19028,9606
3.19290,9122
3.19550,10158
3.19810,11733
3.20072,9869
3.20332,9601
3.20593,9256
3.20853,10186
3.21113,10373
3.21375,9883
3.21635,9818
3.21897,9524
3.22157,10916
3.22417,7256
3.22678,9580
3.22938,8111
3.23200,7764
3.23460,9286
3.23720,9850
3.23982,8262
3.24242,7326
3.24503,7815
3.24763,7886
3.25025,6983
3.25285,7332
3.25545,8847
3.25807,8486
3.26067,8478
3.26328,7546
3.26588,7795
3.26848,9135
3.27110,10174
3.27370,7145
3.27632,9491
3.27892,7814
3.28152,8871
3.28413,8327
3.28673,7550
3.28935,8585
3.29195,8616
3.29455,7505
3.29717,6289
3.29977,7583
3.30238,8252
3.30498,7433
3.30758,6438
3.31020,6501
3.31280,7136
3.31542,8734
3.31802,9304
3.32062,8650
3.32323,7092
3.32583,8824
3.32845,7384
3.33105,7356
3.33367,7397
3.33627,7723
3.33887,7362
3.34148,8012
3.34408,7259
3.34670,7118
3.34930,7379
3.35190,6033
3.35452,6905
3.35712,6869
3.35973,5394
3.36233,6761
3.36493,7981
3.36755,7640
3.37015,7349
3.37277,7000
3.37537,7273
3.37797,7120
3.38058,7109
3.38318,7565
3.38580,6679
3.38840,7574
3.39100,6906
3.39362,7776
3.39622,8461
3.39883,7640
3.40143,9215
3.40403,9612
3.40665,9085
3.40925,9179
3.41187,9156
3.41447,9019
3.41708,9561
3.41968,9147
3.42228,9452
3.42490,8586
3.42750,10199
3.43012,8124
3.43272,7484
3.43532,10040
3.43793,8418
3.44053,9948
3.44315,8642
3.44575,7739
3.44835,8944
3.45097,9136
3.45357,8079
3.45618,9233
3.45878,7562
3.46138,7085
3.46400,7692
3.46660,7984
3.46922,8336
3.47182,6283
3.47442,7232
3.47703,9052
3.47963,8097
3.48225,8072
3.48485,7294
3.48745,6073
3.49007,7645
3.49267,8181
3.49528,7511
3.49788,6886
3.50050,7764
3.50310,9294
3.50570,7623
3.50832,7462
3.51092,8608
3.51353,11988
3.51613,17153
3.51873,29536
3.52135,39795
3.52395,49708
3.52657,53952
3.52917,43141
3.53177,36919
3.53438,27875
3.53698,21333
3.53960,18208
3.54220,15129
3.54480,15873
3.54742,11465
3.55002,12427
3.55263,13304
3.55523,12806
3.55783,13283
3.56045,12332
3.56305,10886
3.56567,12681
3.56827,10577
3.57087,11227
3.57348,12116
3.57608,10943
3.57870,11170
3.58130,11727
3.58392,11382
3.58652,12225
3.58912,13405
3.59173,12791
3.59433,13986
3.59695,12610
3.59955,13332
3.60215,13712
3.60477,14003
3.60737,13509
3.60998,13074
3.61258,13317
3.61518,11934
3.61780,11851
3.62040,12464
3.62302,12106
3.62562,11033
3.62822,11294
3.63083,13278
3.63343,11410
3.63605,14848
3.63865,15213
3.64125,15672
3.64387,16610
3.64647,14702
3.64908,15821
3.65168,14368
3.65428,14336
3.65690,12944
3.65950,11834
3.66212,12497
3.66472,12632
3.66733,12071
3.66993,12012
3.67253,12088
3.67515,12325
3.67775,11713
3.68037,12616
3.68297,12527
3.68557,12120
3.68818,11959
3.69078,11690
3.69340,10394
3.69600,11595
3.69860,11227
3.70122,11537
3.70382,11580
3.70643,11182
3.70903,10629
3.71163,11077
3.71425,10184
3.71685,10909
3.71947,10047
3.72207,10321
3.72467,11468
3.72728,11406
3.72988,11114
3.73250,10758
3.73510,12226
3.73770,11533
3.74032,11763
3.74292,10535
3.74553,10209
3.74813,12638
3.75075,10927
3.75335,11319
3.75595,11875
3.75857,10847
3.76117,9981
3.76378,12133
3.76638,11991
3.76898,11698
3.77160,12934
3.77420,12737
3.77682,12088
3.77942,10314
3.78202,11707
3.78463,11786
3.78723,11362
3.78985,10042
3.79245,10821
3.79505,10296
3.79767,9853
3.80027,9864
3.80288,10454
3.80548,12190
3.80808,11802
3.81070,17161
3.81330,20054
3.81592,26565
3.81852,28039
3.82112,22638
3.82373,18054
3.82633,15629
3.82895,12300
3.83155,11489
3.83417,9892
3.83677,9498
3.83937,9999
3.84198,10054
3.84458,11399
3.84720,10707
3.84980,12468
3.85240,11148
3.85502,10222
3.85762,10619
3.86023,10323
3.86283,10806
3.86543,11306
3.86805,10078
3.87065,10405
3.87327,11325
3.87587,9810
3.87847,10445
3.88108,11737
3.88368,9150
3.88630,11729
3.88890,11800
3.89150,11038
3.89412,11599
3.89672,11514
3.89933,10369
3.90193,10880
3.90453,11163
3.90715,9131
3.90975,9917
3.91237,11640
3.91497,13208
3.91758,11647
3.92018,13126
3.92278,10553
3.92540,11602
3.92800,11728
3.93062,12585
3.93322,16375
3.93582,16682
3.93843,16887
3.94103,17098
3.94365,15028
3.94625,14732
3.94885,11647
3.95147,12325
3.95407,11697
3.95668,12102
3.95928,11521
3.96188,12373
3.96450,10826
3.96710,12074
3.96972,11176
3.97232,12029
3.97492,13085
3.97753,11900
3.98013,11154
3.98275,11049
3.98535,12593
3.98795,10934
3.99057,10486
3.99317,10925
3.99578,9607
3.99838,9453
4.00100,11673
4.00360,10427
4.00620,10218
4.00882,10326
4.01142,11378
4.01403,11864
4.01663,11645
4.01923,10922
4.02185,10804
4.02445,11668
4.02707,10631
4.02967,9757
4.03227,9461
4.03488,11351
4.03748,8916
4.04010,10099
4.04270,10017
4.04530,11145
4.04792,10957
4.05052,10516
4.05313,10408
4.05573,10004
4.05833,12088
4.06095,11353
4.06355,12658
4.06617,11312
4.06877,10792
4.07137,8784
4.07398,10702
4.07658,11410
4.07920,10043
4.08180,11273
4.08442,9343
4.08702,10780
4.08962,9677
4.09223,10116
4.09483,11378
4.09745,12593
4.10005,10782
4.10265,11431
4.10527,11463
4.10787,10889
4.11048,9594
4.11308,10173
4.11568,10375
4.11830,10174
4.12090,10728
4.12352,10411
4.12612,11390
4.12872,11008
4.13133,10811
4.13393,11141
4.13655,10755
4.13915,10715
4.14175,11385
4.14437,10861
4.14697,10974
4.14958,10636
4.15218,10118
4.15478,9674
4.15740,13672
4.16000,10169
4.16262,11084
4.16522,10458
4.16783,10728
4.17043,11023
4.17303,11739
4.17565,9257
4.17825,11577
4.18087,10025
4.18347,11042
4.18607,10503
4.18868,10615
4.19128,11061
4.19390,11983
4.19650,10984
4.19910,10650
4.20172,10709
4.20432,11585
4.20693,10333
4.20953,10706
4.21213,10182
4.21475,10549
4.21735,11975
4.21997,10377
4.22257,9412
4.22517,10644
4.22778,9107
4.23038,11627
4.23300,10600
4.23560,12232
4.23820,11159
4.24082,8795
4.24342,10106
4.24603,9665
4.24863,10495
4.25125,10430
4.25385,11328
4.25645,11028
4.25907,11232
4.26167,9652
4.26428,11892
4.26688,10778
4.26948,10600
4.27210,9820
4.27470,11364
4.27732,11666
4.27992,9530
4.28252,10105
4.28513,10078
4.28773,11194
4.29035,11210
4.29295,12194
4.29555,9831
4.29817,10723
4.30077,9922
4.30338,10871
4.30598,9946
4.30858,10957
4.31120,10113
4.31380,12195
4.31642,9827
4.31902,10545
4.32162,10012
4.32423,11682
4.32683,10461
4.32945,10207
4.33205,10630
4.33467,10254
4.33727,9668
4.33987,11317
4.34248,9649
4.34508,9950
4.34770,11767
4.35030,9142
4.35290,11683
4.35552,9668
4.35812,11147
4.36073,9627
4.36333,10246
4.36593,11062
4.36855,10282
4.37115,10610
4.37377,10646
4.37637,10454
4.37897,9963
4.38158,11116
4.38418,10181
4.38680,10789
4.38940,11475
4.39200,11730
4.39462,10616
4.39722,11870
4.39983,11685
4.40243,10183
4.40503,10961
4.40765,11926
4.41025,12109
4.41287,12493
4.41547,11420
4.41808,11439
4.42068,10634
4.42328,10802
4.42590,10656
4.42850,10667
4.43112,9996
4.43372,9825
4.43632,12414
4.43893,9567
4.44153,10579
4.44415,10829
4.44675,11355
4.44935,10820
4.45197,10727
4.45457,9595
4.45718,10602
4.45978,11095
4.46238,9431
4.46500,9339
4.46760,10564
4.47022,11784
4.47282,10818
4.47542,9972
4.47803,10087
4.48063,10513
4.48325,10370
4.48585,10084
4.48845,9825
4.49107,9846
4.49367,11728
4.49628,11289
4.49888,10114
4.50150,11124
4.50410,13080
4.50670,15633
4.50932,20831
4.51192,29075
4.51453,28012
4.51713,22615
4.51973,17465
4.52235,13712
4.52495,10615
4.52757,11730
4.53017,10732
4.53277,11258
4.53538,11203
4.53798,10345
4.54060,9802
4.54320,10719
4.54580,11287
4.54842,9436
4.55102,10428
4.55363,10241
4.55623,9989
4.55883,10476
4.56145,9098
4.56405,9876
4.56667,9156
4.56927,9018
4.57187,9777
4.57448,8729
4.57708,10548
4.57970,10292
4.58230,9106
4.58492,10898
4.58752,8968
4.59012,10365
4.59273,11251
4.59533,9811
4.59795,10493
4.60055,8916
4.60315,10121
4.60577,10389
4.60837,9573
4.61098,10163
4.61358,9855
4.61618,10989
4.61880,9817
4.62140,9583
4.62402,11445
4.62662,9418
4.62922,9709
4.63183,9962
4.63443,10923
4.63705,9482
4.63965,11075
4.64225,12024
4.64487,11378
4.64747,9177
4.65008,10212
4.65268,11298
4.65528,10495
4.65790,10961
4.66050,9114
4.66312,9308
4.66572,9679
4.66833,9433
4.67093,10337
4.67353,10524
4.67615,10541
4.67875,10937
4.68137,9928
4.68397,12500
4.68657,10547
4.68918,12360
4.69178,9201
4.69440,10880
4.69700,10913
4.69960,10313
4.70222,10289
4.70482,11397
4.70743,11520
4.71003,10238
4.71263,10109
4.71525,12418
4.71785,11380
4.72047,9581
4.72307,12226
4.72567,9244
4.72828,10373
4.73088,9759
4.73350,10170
4.73610,11466
4.73870,9432
4.74132,9288
4.74392,11476
4.74653,10117
4.74913,10906
4.75175,10499
4.75435,10746
4.75695,10147
4.75957,9714
4.76217,10758
4.76478,8999
4.76738,9874
4.76998,10022
4.77260,10717
4.77520,10967
4.77782,10792
4.78042,11029
4.78302,9737
4.78563,11040
4.78823,8942
4.79085,11318
4.79345,10481
4.79605,10845
4.79867,10289
4.80127,9804
4.80388,8962
4.80648,11343
4.80908,11017
4.81170,10243
4.81430,10577
4.81692,11226
4.81952,10470
4.82212,10537
4.82473,11484
4.82733,10371
4.82995,11017
4.83255,10202
4.83517,10141
4.83777,10268
4.84037,9626
4.84298,9900
4.84558,11293
4.84820,10341
4.85080,9040
4.85340,12258
4.85602,9975
4.85862,10434
4.86123,10398
4.86383,10526
4.86643,10422
4.86905,10884
4.87165,10673
4.87427,10269
4.87687,8886
4.87947,9218
4.88208,11368
4.88468,10521
4.88730,10950
4.88990,10562
4.89250,10523
4.89512,9819
4.89772,9853
4.90033,9261
4.90293,10690
4.90553,10125
4.90815,9544
4.91075,9912
4.91337,7817
4.91597,10498
4.91858,9606
4.92118,11180
4.92378,10279
4.92640,10366
4.92900,10463
4.93162,9781
4.93422,10105
4.93682,9620
4.93943,9430
4.94203,10490
4.94465,10068
4.94725,9599
4.94985,10550
4.95247,10724
4.95507,8619
4.95768,10452
4.96028,9301
4.96288,10204
4.96550,11863
4.96810,10555
4.97072,10936
4.97332,12412
4.97592,9328
4.97853,10818
4.98113,9960
4.98375,11517
4.98635,10273
4.98895,10830
4.99157,10949
4.99417,9398
4.99678,10240
4.99938,10954
5.00200,10365
5.00460,11280
5.00720,10904
5.00982,9823
5.01242,9613
5.01503,10287
5.01763,10881
5.02023,11564
5.02285,10117
5.02545,12701
5.02807,11121
5.03067,10771
5.03327,10301
5.03588,11827
5.03848,10239
5.04110,9683
5.04370,10889
5.04630,11378
5.04892,8991
5.05152,10448
5.05413,9347
5.05673,10437
5.05933,11020
5.06195,9406
5.06455,9194
5.06717,12371
5.06977,10667
5.07237,10900
5.07498,10124
5.07758,10403
5.08020,11370
5.08280,10458
5.08542,11213
5.08802,15856
5.09062,17790
5.09323,22554
5.09583,21477
5.09845,20317
5.10105,17232
5.10365,12561
5.10627,11776
5.10887,11550
5.11148,11454
5.11408,9998
5.11668,10854
5.11930,9908
5.12190,8653
5.12452,11417
5.12712,11624
5.12972,10584
5.13233,10177
5.13493,10564
5.13755,9651
5.14015,10649
5.14275,10278
5.14537,11146
5.14797,11547
5.15058,11113
5.15318,9741
5.15578,10695
5.15840,9913
5.16100,10872
5.16362,11567
5.16622,10560
5.16883,10249
5.17143,10522
5.17403,9989
5.17665,11679
5.17925,10108
5.18187,9997
5.18447,9619
5.18707,11289
5.18968,10421
5.19228,11115
5.19490,10566
5.19750,11205
5.20010,10785
5.20272,10936
5.20532,11713
5.20793,10489
5.21053,10875
5.21313,10516
5.21575,10464
5.21835,10035
5.22097,9804
5.22357,9842
5.22617,11396
5.22878,10863
5.23138,10460
5.23400,10131
5.23660,11922
5.23920,10686
5.24182,10634
5.24442,8342
5.24703,10874
5.24963,10124
5.25225,11087
5.25485,10740
5.25745,10808
5.26007,10552
5.26267,11546
5.26528,9809
5.26788,11495
5.27048,10213
5.27310,11575
5.27570,9794
5.27832,10746
5.28092,9503
5.28352,10357
5.28613,10169
5.28873,10065
5.29135,10814
5.29395,9913
5.29655,11445
5.29917,10050
5.30177,12183
5.30438,11473
5.30698,10862
5.30958,10118
5.31220,10748
5.31480,10874
5.31742,11447
5.32002,11453
5.32262,11050
5.32523,10641
5.32783,10664
5.33045,10648
5.33305,11035
5.33567,11760
5.33827,10276
5.34087,10749
5.34348,11973
5.34608,11333
5.34870,10039
5.35130,12038
5.35390,10967
5.35652,10621
5.35912,10543
5.36173,11290
5.36433,11464
5.36693,11414
5.36955,10436
5.37215,10737
5.37477,10422
5.37737,11798
5.37997,10461
5.38258,12197
5.38518,10240
5.38780,11065
5.39040,11092
5.39300,11399
5.39562,11146
5.39822,11318
5.40083,9677
5.40343,10440
5.40603,11085
5.40865,10821
5.41125,9688
5.41387,11170
5.41647,9579
5.41908,11219
5.42168,12007
5.42428,12231
5.42690,11661
5.42950,11017
5.43212,11087
5.43472,10784
5.43732,10434
5.43993,11651
5.44253,10597
5.44515,10440
5.44775,12793
5.45035,13014
5.45297,15556
5.45557,16872
5.45818,15892
5.46078,16151
5.46338,14969
5.46600,13897
5.46860,13567
5.47122,14475
5.47382,14671
5.47642,11747
5.47903,10892
5.48163,12798
5.48425,12011
5.48685,13323
5.48945,11135
5.49207,10741
5.49467,11993
5.49728,11578
5.49988,11203
5.50250,13010
5.50510,11300
5.50770,11661
5.51032,10922
5.51292,11051
5.51553,12253
5.51813,10517
5.52073,12087
5.52335,10983
5.52595,12019
5.52857,11812
5.53117,11605
5.53377,10858
5.53638,11974
5.53898,11852
5.54160,11026
5.54420,10021
5.54680,12866
5.54942,11876
5.55202,10866
5.55463,11330
5.55723,11689
5.55983,9996
5.56245,10048
5.56505,10323
5.56767,11304
5.57027,12237
5.57287,14619
5.57548,12458
5.57808,11377
5.58070,11448
5.58330,12009
5.58592,10719
5.58852,11359
5.59112,11991
5.59373,12559
5.59633,13003
5.59895,13972
5.60155,18325
5.60415,18163
5.60677,18041
5.60937,16497
5.61198,14706
5.61458,12511
5.61718,11508
5.61980,13746
5.62240,10771
5.62502,11246
5.62762,11081
5.63022,10681
5.63283,12439
5.63543,10935
5.63805,11297
5.64065,11101
5.64325,12108
5.64587,10950
5.64847,10929
5.65108,10545
5.65368,10583
5.65628,11499
5.65890,11274
5.66150,12139
5.66412,12008
5.66672,10152
5.66933,11482
5.67193,12218
5.67453,11584
5.67715,11251
5.67975,11578
5.68237,9230
5.68497,10509
5.68757,10441
5.69018,10198
5.69278,12529
5.69540,11995
5.69800,12522
5.70060,14417
5.70322,13039
5.70582,15376
5.70843,15040
5.71103,13139
5.71363,11754
5.71625,11546
5.71885,11808
5.72147,9504
5.72407,12187
5.72667,11318
5.72928,11819
5.73188,11925
5.73450,11863
5.73710,11922
5.73970,11908
5.74232,13141
5.74492,11852
5.74753,12794
5.75013,12006
5.75275,10836
5.75535,12003
5.75795,11629
5.76057,11226
5.76317,13061
5.76578,11355
5.76838,10801
5.77098,10655
5.77360,11552
5.77620,12245
5.77882,12394
5.78142,12206
5.78402,11697
5.78663,12590
5.78923,10170
5.79185,11645
5.79445,12126
5.79705,13686
5.79967,12539
5.80227,14512
5.80488,14394
5.80748,13190
5.81008,13984
5.81270,14299
5.81530,18640
5.81792,25404
5.82052,33761
5.82312,40619
5.82573,39864
5.82833,35549
5.83095,26026
5.83355,19890
5.83617,16456
5.83877,16268
5.84137,17478
5.84398,20352
5.84658,20840
5.84920,18917
5.85180,14421
5.85440,13806
5.85702,12955
5.85962,12695
5.86223,13172
5.86483,13165
5.86743,12695
5.87005,12908
5.87265,11954
5.87527,12064
5.87787,11942
5.88047,13171
5.88308,12210
5.88568,14022
5.88830,13239
5.89090,12886
5.89350,13379
5.89612,13483
5.89872,13070
5.90133,12286
5.90393,12062
5.90653,13099
5.90915,12782
5.91175,12334
5.91437,12547
5.91697,13213
5.91958,11999
5.92218,14228
5.92478,13774
5.92740,15477
5.93000,13598
5.93262,15137
5.93522,16606
5.93782,16085
5.94043,17419
5.94303,18055
5.94565,16161
5.94825,16269
5.95085,15849
5.95347,14493
5.95607,15890
5.95868,15888
5.96128,16293
5.96388,15853
5.96650,15034
5.96910,14216
5.97172,13890
5.97432,13507
5.97692,15054
5.97953,13956
5.98213,14631
5.98475,14371
5.98735,15955
5.98995,13901
5.99257,15412
5.99517,13417
5.99778,13952
6.00038,15008
6.00300,14169
6.00560,15484
6.00820,14244
6.01082,14675
6.01342,13342
6.01603,14376
6.01863,15877
6.02123,14076
6.02385,13720
6.02645,13063
6.02907,15047
6.03167,12838
6.03427,15462
6.03688,12906
6.03948,15208
6.04210,15349
6.04470,16941
6.04730,20629
6.04992,25088
6.05252,29171
6.05513,28176
6.05773,26066
6.06033,25153
6.06295,25050
6.06555,24266
6.06817,27565
6.07077,26569
6.07337,23387
6.07598,21292
6.07858,17842
6.08120,18561
6.08380,15633
6.08642,15558
6.08902,16308
6.09162,16316
6.09423,15092
6.09683,14610
6.09945,15518
6.10205,15887
6.10465,13826
6.10727,14847
6.10987,16694
6.11248,15046
6.11508,15052
6.11768,15029
6.12030,17174
6.12290,17960
6.12552,17688
6.12812,20526
6.13072,17419
6.13333,17291
6.13593,17269
6.13855,15910
6.14115,15095
6.14375,15937
6.14637,15500
6.14897,13952
6.15158,14555
6.15418,15397
6.15678,13983
6.15940,13408
6.16200,14516
6.16462,13830
6.16722,14666
6.16983,15954
6.17243,15233
6.17503,15303
6.17765,15843
6.18025,16734
6.18287,15813
6.18547,12834
6.18807,14114
6.19068,12599
6.19328,14889
6.19590,13208
6.19850,12655
6.20110,13053
6.20372,13744
6.20632,12816
6.20893,15779
6.21153,13814
6.21413,15747
6.21675,14912
6.21935,13913
6.22197,14281
6.22457,14194
6.22717,13079
6.22978,12294
6.23238,12945
6.23500,11794
6.23760,12200
6.24020,13528
6.24282,13323
6.24542,13280
6.24803,13532
6.25063,14121
6.25325,14658
6.25585,13259
6.25845,12797
6.26107,13743
6.26367,13040
6.26628,14042
6.26888,13537
6.27148,13835
6.27410,13777
6.27670,14922
6.27932,14198
6.28192,12201
6.28452,14228
6.28713,13649
6.28973,14181
6.29235,13729
6.29495,14569
6.29755,14313
6.30017,12731
6.30277,15921
6.30538,14795
6.30798,11324
6.31058,13280
6.31320,13778
6.31580,12891
6.31842,12314
6.32102,13146
6.32362,14040
6.32623,13889
6.32883,14104
6.33145,12439
6.33405,12635
6.33667,14979
6.33927,12965
6.34187,13094
6.34448,14727
6.34708,13372
6.34970,14316
6.35230,13459
6.35490,13287
6.35752,14543
6.36012,12381
6.36273,13100
6.36533,14628
6.36793,12234
6.37055,13260
6.37315,14432
6.37577,14205
6.37837,12579
6.38097,13313
6.38358,13618
6.38618,13416
6.38880,13731
6.39140,14619
6.39400,12738
6.39662,13124
6.39922,13720
6.40183,14375
6.40443,15017
6.40703,17781
6.40965,15688
6.41225,13671
6.41487,15665
6.41747,15819
6.42008,14625
6.42268,12838
6.42528,13554
6.42790,14637
6.43050,14380
6.43312,13289
6.43572,13806
6.43832,13736
6.44093,12451
6.44353,12487
6.44615,14157
6.44875,12637
6.45135,12921
6.45397,11781
6.45657,11996
6.45918,13685
6.46178,13542
6.46438,12703
6.46700,11913
6.46960,15877
6.47222,15027
6.47482,13754
6.47742,15830
6.48003,15292
6.48263,16439
6.48525,19592
6.48785,20331
6.49045,21155
6.49307,28783
6.49567,43524
6.49828,97638
6.50088,180994
6.50350,292110
6.50610,368091
6.50870,350076
6.51132,276407
6.51392,176962
6.51653,106210
6.51913,67343
6.52173,50405
6.52435,42558
6.52695,36978
6.52957,33995
6.53217,30967
6.53477,31045
6.53738,27272
6.53998,23756
6.54260,24889
6.54520,25387
6.54780,23392
6.55042,23918
6.55302,20914
6.55563,18627
6.55823,21313
6.56083,19298
6.56345,18835
6.56605,18833
6.56867,17293
6.57127,18870
6.57387,20763
6.57648,20466
6.57908,19554
6.58170,20467
6.58430,18715
6.58692,22592
6.58952,47642
6.59212,157812
6.59473,580191
6.59733,1935650
6.59995,4801738
6.60255,9225150
6.60515,1.501326E+07
6.60777,2.134668E+07
6.61037,2.672453E+07
6.61298,2.937053E+07
6.61558,2.85756E+07
6.61818,2.040085E+07
6.62080,8373208
6.62340,2243507
6.62602,623228
6.62862,269762
6.63122,174466
6.63383,139438
6.63643,113297
6.63905,98209
6.64165,83930
6.64425,78132
6.64687,67906
6.64947,61459
6.65208,62385
6.65468,51692
6.65728,55328
6.65990,50386
6.66250,49036
6.66512,45428
6.66772,43165
6.67033,44124
6.67293,40559
6.67553,40347
6.67815,38327
6.68075,37620
6.68337,37407
6.68597,35263
6.68857,33352
6.69118,34239
6.69378,31847
6.69640,31300
6.69900,30339
6.70160,29605
6.70422,30599
6.70682,30629
6.70943,29107
6.71203,29543
6.71463,26918
6.71725,26421
6.71985,29427
6.72247,28242
6.72507,25845
6.72767,26573
6.73028,28542
6.73288,27732
6.73550,26956
6.73810,25711
6.74070,26411
6.74332,25406
6.74592,24447
6.74853,24759
6.75113,24652
6.75375,24495
6.75635,24510
6.75895,25518
6.76157,26201
6.76417,26007
6.76678,29484
6.76938,26266
6.77198,30928
6.77460,28591
6.77720,25200
6.77982,23542
6.78242,22570
6.78502,24770
6.78763,22643
6.79023,21767
6.79285,21845
6.79545,22254
6.79805,21832
6.80067,22402
6.80327,20563
6.80588,20363
6.80848,19273
6.81108,21267
6.81370,20541
6.81630,21236
6.81892,18879
6.82152,22029
6.82412,19257
6.82673,20425
6.82933,20986
6.83195,18791
6.83455,18860
6.83717,20953
6.83977,20134
6.84237,18761
6.84498,18682
6.84758,20878
6.85020,21154
6.85280,19585
6.85540,20156
6.85802,22496
6.86062,23154
6.86323,25248
6.86583,30299
6.86843,32899
6.87105,31840
6.87365,30987
6.87627,32076
6.87887,29296
6.88147,28005
6.88408,27040
6.88668,22662
6.88930,20245
6.89190,20718
6.89450,19401
6.89712,21157
6.89972,20097
6.90233,20956
6.90493,22008
6.90753,19552
6.91015,19569
6.91275,19705
6.91537,19503
6.91797,19492
6.92058,22438
6.92318,20889
6.92578,18797
6.92840,18851
6.93100,23013
6.93362,27851
6.93622,32207
6.93882,32993
6.94143,32019
6.94403,30247
6.94665,25546
6.94925,23977
6.95185,22928
6.95447,19564
6.95707,21886
6.95968,19107
6.96228,22107
6.96488,20505
6.96750,21592
6.97010,20515
6.97272,19982
6.97532,19643
6.97792,19893
6.98053,21657
6.98313,19446
6.98575,18119
6.98835,19239
6.99095,22024
6.99357,20287
6.99617,19242
6.99878,19660
7.00138,18846
7.00400,20753
7.00660,20654
7.00920,20681
7.01182,20625
7.01442,19079
7.01703,19608
7.01963,18894
7.02223,18619
7.02485,18159
7.02745,17683
7.03007,17798
7.03267,19022
7.03527,16669
7.03788,19124
7.04048,20800
7.04310,18092
7.04570,19552
7.04830,19387
7.05092,19344
7.05352,20449
7.05613,18450
7.05873,21761
7.06133,20477
7.06395,20432
7.06655,19021
7.06917,19860
7.07177,21071
7.07437,20361
7.07698,19817
7.07958,20290
7.08220,20081
7.08480,19642
7.08742,19065
7.09002,21379
7.09262,19607
7.09523,20054
7.09783,18298
7.10045,18528
7.10305,20427
7.10565,18903
7.10827,19214
7.11087,17337
7.11348,18179
7.11608,21592
7.11868,17662
7.12130,18236
7.12390,20414
7.12652,18344
7.12912,19229
7.13172,20075
7.13433,17506
7.13693,18759
7.13955,17863
7.14215,18644
7.14475,20008
7.14737,19522
7.14997,18922
7.15258,18905
7.15518,18943
7.15778,17967
7.16040,20240
7.16300,19249
7.16562,18767
7.16822,20139
7.17083,20204
7.17343,19782
7.17603,19588
7.17865,18660
7.18125,19245
7.18387,19623
7.18647,19716
7.18907,18190
7.19168,19182
7.19428,18858
7.19690,18514
7.19950,19809
7.20210,20576
7.20472,19552
7.20732,21848
7.20993,21980
7.21253,22158
7.21513,22617
7.21775,22038
7.22035,22489
7.22297,21808
7.22557,22573
7.22817,22397
7.23078,20847
7.23338,20133
7.23600,22861
7.23860,23507
7.24120,27664
7.24382,24652
7.24642,22242
7.24903,22660
7.25163,20689
7.25425,20205
7.25685,21313
7.25945,18399
7.26207,21024
7.26467,19838
7.26728,20606
7.26988,21059
7.27248,19410
7.27510,19161
7.27770,19518
7.28032,19994
7.28292,21904
7.28552,21270
7.28813,18981
7.29073,18144
7.29335,18008
7.29595,18710
7.29855,19605
7.30117,19495
7.30377,21095
7.30638,19868
7.30898,21059
7.31158,19857
7.31420,21184
7.31680,20796
7.31942,20928
7.32202,21467
7.32462,20793
7.32723,21896
7.32983,19572
7.33245,19100
7.33505,20903
7.33767,20848
7.34027,20479
7.34287,19293
7.34548,22045
7.34808,18938
7.35070,18518
7.35330,20362
7.35590,19042
7.35852,20190
7.36112,21538
7.36373,22294
7.36633,19410
7.36893,21430
7.37155,20808
7.37415,20284
7.37677,18621
7.37937,21055
7.38197,19695
7.38458,21372
7.38718,19338
7.38980,21308
7.39240,19344
7.39500,20964
7.39762,20911
7.40022,22651
7.40283,22455
7.40543,20286
7.40803,21036
7.41065,22629
7.41325,20534
7.41587,21273
7.41847,22041
7.42108,20693
7.42368,22638
7.42628,21473
7.42890,20211
7.43150,21052
7.43412,24744
7.43672,20344
7.43932,22056
7.44193,21017
7.44453,20697
7.44715,20474
7.44975,18627
7.45235,21403
7.45497,20362
7.45757,20821
7.46018,21438
7.46278,20412
7.46538,19489
7.46800,21682
7.47060,19903
7.47322,22466
7.47582,20476
7.47842,23497
7.48103,20987
7.48363,22377
7.48625,20778
7.48885,21603
7.49145,21727
7.49407,23527
7.49667,23547
7.49928,22103
7.50188,22244
7.50450,23020
7.50710,20696
7.50970,22915
7.51232,22918
7.51492,22271
7.51753,21440
7.52013,20931
7.52273,23668
7.52535,24696
7.52795,23874
7.53057,23460
7.53317,22941
7.53577,22790
7.53838,24283
7.54098,21152
7.54360,22725
7.54620,21977
7.54880,21327
7.55142,22408
7.55402,22075
7.55663,22132
7.55923,21489
7.56183,21292
7.56445,20992
7.56705,24030
7.56967,23201
7.57227,24914
7.57487,25588
7.57748,24689
7.58008,26654
7.58270,29118
7.58530,28181
7.58792,29330
7.59052,27398
7.59312,25402
7.59573,24653
7.59833,22615
7.60095,23974
7.60355,22034
7.60615,21319
7.60877,21882
7.61137,22207
7.61398,23873
7.61658,21817
7.61918,22013
7.62180,23267
7.62440,21618
7.62702,22452
7.62962,22848
7.63222,24410
7.63483,23286
7.63743,23559
7.64005,23955
7.64265,22701
7.64525,22423
7.64787,20692
7.65047,23576
7.65308,23419
7.65568,21663
7.65828,22740
7.66090,24064
7.66350,23299
7.66612,26625
7.66872,29912
7.67133,31980
7.67393,38783
7.67653,43189
7.67915,46082
7.68175,44335
7.68437,40080
7.68697,32563
7.68957,29488
7.69218,27525
7.69478,28588
7.69740,24959
7.70000,28054
7.70260,23917
7.70522,25230
7.70782,24517
7.71043,26758
7.71303,26130
7.71563,27649
7.71825,24801
7.72085,25962
7.72347,26527
7.72607,27510
7.72867,26985
7.73128,26230
7.73388,26906
7.73650,25382
7.73910,24631
7.74170,26616
7.74432,27128
7.74692,24842
7.74953,25626
7.75213,24933
7.75475,26704
7.75735,25517
7.75995,26791
7.76257,24913
7.76517,26373
7.76778,26750
7.77038,26764
7.77298,25944
7.77560,27208
7.77820,24134
7.78082,27215
7.78342,26492
7.78602,27535
7.78863,27083
7.79123,24928
7.79385,25376
7.79645,25871
7.79905,26397
7.80167,24328
7.80427,26627
7.80688,23594
7.80948,24129
7.81208,26987
7.81470,25897
7.81730,27573
7.81992,28146
7.82252,30463
7.82512,34140
7.82773,33943
7.83033,35010
7.83295,35825
7.83555,30915
7.83817,29387
7.84077,29545
7.84337,28090
7.84598,25580
7.84858,26468
7.85120,27209
7.85380,26269
7.85640,28420
7.85902,26994
7.86162,29541
7.86423,27083
7.86683,28429
7.86943,27752
7.87205,29626
7.87465,26834
7.87727,27048
7.87987,26790
7.88247,26268
7.88508,28912
7.88768,26302
7.89030,29645
7.89290,26219
7.89550,29162
7.89812,29361
7.90072,28043
7.90333,30701
7.90593,31678
7.90853,35892
7.91115,34406
7.91375,33220
7.91637,30762
7.91897,30726
7.92158,27855
7.92418,31090
7.92678,29694
7.92940,29087
7.93200,27041
7.93462,30731
7.93722,28905
7.93982,30919
7.94243,28317
7.94503,26867
7.94765,31111
7.95025,27788
7.95285,27930
7.95547,26759
7.95807,29163
7.96068,26833
7.96328,28492
7.96588,30920
7.96850,27360
7.97110,30414
7.97372,28856
7.97632,30631
7.97892,30255
7.98153,28722
7.98413,28252
7.98675,28494
7.98935,30005
7.99195,31249
7.99457,30676
7.99717,29784
7.99978,31486
8.00238,30659
8.00500,30840
8.00760,29681
8.01020,28203
8.01282,32130
8.01542,29546
8.01803,30943
8.02063,29981
8.02323,29826
8.02585,29731
8.02845,31763
8.03107,30953
8.03367,29383
8.03627,31032
8.03888,31240
8.04148,30165
8.04410,30504
8.04670,32868
8.04930,30086
8.05192,32469
8.05452,33735
8.05713,57965
8.05973,164070
8.06233,571752
8.06495,1844974
8.06755,4563548
8.07017,8848460
8.07277,1.332785E+07
8.07537,1.750101E+07
8.07798,2.040442E+07
8.08058,1.918419E+07
8.08320,1.371904E+07
8.08580,7230466
8.08842,3415288
8.09102,1779332
8.09362,1132210
8.09623,804050
8.09883,631994
8.10145,519215
8.10405,433138
8.10665,357955
8.10927,315489
8.11187,270796
8.11448,242537
8.11708,223788
8.11968,197948
8.12230,179068
8.12490,165284
8.12752,160125
8.13012,139920
8.13272,134347
8.13533,123826
8.13793,123200
8.14055,114038
8.14315,105578
8.14575,97462
8.14837,95197
8.15097,95237
8.15358,86516
8.15618,88854
8.15878,82252
8.16140,78719
8.16400,75137
8.16662,71116
8.16922,72800
8.17183,68879
8.17443,72108
8.17703,81271
8.17965,81054
8.18225,84664
8.18487,81543
8.18747,70649
8.19007,68783
8.19268,65361
8.19528,59443
8.19790,61055
8.20050,58200
8.20310,59125
8.20572,60354
8.20832,60034
8.21093,61126
8.21353,60771
8.21613,58024
8.21875,55398
8.22135,53211
8.22397,50973
8.22657,56047
8.22917,53462
8.23178,51186
8.23438,51252
8.23700,53558
8.23960,49313
8.24220,51420
8.24482,52349
8.24742,48207
8.25003,48924
8.25263,49114
8.25525,46575
8.25785,47451
8.26045,44189
8.26307,47488
8.26567,47069
8.26828,45955
8.27088,45553
8.27348,47186
8.27610,47432
8.27870,44849
8.28132,47280
8.28392,44791
8.28652,43751
8.28913,47919
8.29173,46750
8.29435,46801
8.29695,46682
8.29955,48148
8.30217,50742
8.30477,49556
8.30738,49199
8.30998,47222
8.31258,49831
8.31520,49640
8.31780,48129
8.32042,45795
8.32302,45078
8.32562,46306
8.32823,45459
8.33083,47673
8.33345,46375
8.33605,49883
8.33867,45277
8.34127,48012
8.34387,48988
8.34648,43598
8.34908,46903
8.35170,49406
8.35430,47543
8.35690,46996
8.35952,45029
8.36212,46359
8.36473,49147
8.36733,50346
8.36993,49404
8.37255,48450
8.37515,49663
8.37777,48754
8.38037,49666
8.38297,46733
8.38558,45569
8.38818,48777
8.39080,50052
8.39340,49068
8.39600,47754
8.39862,49990
8.40122,49268
8.40383,49207
8.40643,49347
8.40903,49552
8.41165,46946
8.41425,47418
8.41687,49869
8.41947,46975
8.42208,51360
8.42468,48564
8.42728,52548
8.42990,46358
8.43250,48914
8.43512,49956
8.43772,51337
8.44032,51369
8.44293,48933
8.44553,49083
8.44815,48578
8.45075,48705
8.45335,51312
8.45597,50084
8.45857,53272
8.46118,50666
8.46378,51581
8.46638,53037
8.46900,54810
8.47160,55445
8.47422,58572
8.47682,59454
8.47942,60331
8.48203,59691
8.48463,55626
8.48725,60413
8.48985,55830
8.49245,56957
8.49507,58364
8.49767,51201
8.50028,57430
8.50288,56365
8.50550,62365
8.50810,70799
8.51070,73763
8.51332,76560
8.51592,76155
8.51853,69065
8.52113,64461
8.52373,60192
8.52635,61391
8.52895,60272
8.53157,62180
8.53417,58635
8.53677,63007
8.53938,59148
8.54198,62312
8.54460,62685
8.54720,58871
8.54980,60897
8.55242,61625
8.55502,61537
8.55763,61047
8.56023,60907
8.56283,62368
8.56545,60869
8.56805,60700
8.57067,63610
8.57327,61802
8.57587,62008
8.57848,64306
8.58108,63240
8.58370,63585
8.58630,61909
8.58892,64542
8.59152,70515
8.59412,65767
8.59673,66261
8.59933,66379
8.60195,65838
8.60455,66249
8.60715,64566
8.60977,64907
8.61237,65548
8.61498,63121
8.61758,66343
8.62018,66505
8.62280,68643
8.62540,67554
8.62802,67888
8.63062,72856
8.63322,70762
8.63583,66797
8.63843,70179
8.64105,70604
8.64365,70439
8.64625,70168
8.64887,69239
8.65147,70800
8.65408,72386
8.65668,77219
8.65928,71942
8.66190,73485
8.66450,73073
8.66712,69641
8.66972,71798
8.67233,72530
8.67493,75721
8.67753,73995
8.68015,75652
8.68275,77088
8.68537,78802
8.68797,80842
8.69057,82847
8.69318,84200
8.69578,81398
8.69840,81733
8.70100,86628
8.70360,81351
8.70622,87888
8.70882,86659
8.71143,88694
8.71403,90784
8.71663,91771
8.71925,95939
8.72185,97113
8.72447,90731
8.72707,93451
8.72967,89283
8.73228,94924
8.73488,91584
8.73750,91951
8.74010,87434
8.74270,86765
8.74532,91008
8.74792,89014
8.75053,84852
8.75313,87194
8.75575,89490
8.75835,90351
8.76095,86847
8.76357,86791
8.76617,87850
8.76878,89400
8.77138,90023
8.77398,89151
8.77660,89657
8.77920,90848
8.78182,85804
8.78442,88488
8.78702,89289
8.78963,93612
8.79223,92329
8.79485,91230
8.79745,89640
8.80005,93480
8.80267,89804
8.80527,91631
8.80788,89962
8.81048,89802
8.81308,94586
8.81570,87206
8.81830,93163
8.82092,94128
8.82352,88427
8.82612,91024
8.82873,92920
8.83133,88893
8.83395,91754
8.83655,96331
8.83917,91820
8.84177,95380
8.84437,96551
8.84698,92020
8.84958,95678
8.85220,97449
8.85480,97478
8.85740,97029
8.86002,95314
8.86262,94768
8.86523,94729
8.86783,94613
8.87043,92709
8.87305,94764
8.87565,96338
8.87827,100476
8.88087,99197
8.88347,98385
8.88608,98042
8.88868,97973
8.89130,97947
8.89390,101935
8.89650,99089
8.89912,101613
8.90172,96606
8.90433,102599
8.90693,98445
8.90955,105706
8.91215,100425
8.91475,108522
8.91737,100646
8.91997,99676
8.92258,103015
8.92518,99975
8.92778,106305
8.93040,101236
8.93300,106108
8.93562,108462
8.93822,105917
8.94082,105183
8.94343,110313
8.94603,100099
8.94865,104038
8.95125,107957
8.95385,103729
8.95647,102777
8.95907,99867
8.96168,101870
8.96428,106476
8.96688,110573
8.96950,105334
8.97210,102940
8.97472,105237
8.97732,103996
8.97992,106660
8.98253,103674
8.98513,108716
8.98775,111237
8.99035,105668
8.99297,103502
8.99557,107563
8.99817,106488
9.00078,105430
9.00338,102876
9.00600,113474
9.00860,110682
9.01120,108987
9.01382,107887
9.01642,110528
9.01903,107193
9.02163,106973
9.02423,110358
9.02685,107314
9.02945,107678
9.03207,107963
9.03467,105127
9.03727,110593
9.03988,107502
9.04248,110464
9.04510,105200
9.04770,110325
9.05030,111375
9.05292,107558
9.05552,107298
9.05813,107824
9.06073,107557
9.06333,111227
9.06595,111317
9.06855,104723
9.07117,110967
9.07377,108691
9.07638,114965
9.07898,109087
9.08158,109756
9.08420,109202
9.08680,106473
9.08942,108083
9.09202,111384
9.09462,111205
9.09723,113900
9.09983,107480
9.10245,109400
9.10505,112004
9.10765,111800
9.11027,109651
9.11287,114017
9.11548,112527
9.11808,112291
9.12068,111616
9.12330,113109
9.12590,113217
9.12852,114083
9.13112,116573
9.13372,115824
9.13633,115324
9.13893,103889
9.14155,112228
9.14415,112560
9.14675,109118
9.14937,111092
9.15197,112389
9.15458,111227
9.15718,108061
9.15980,112402
9.16240,111734
9.16500,113083
9.16762,109396
9.17022,108168
9.17283,112403
9.17543,112014
9.17803,114939
9.18065,116254
9.18325,113038
9.18587,112497
9.18847,114401
9.19107,111425
9.19368,115985
9.19628,115127
9.19890,117895
9.20150,121990
9.20410,117035
9.20672,116276
9.20932,115267
9.21193,116563
9.21453,110754
9.21713,116301
9.21975,114468
9.22235,113383
9.22497,108685
9.22757,110717
9.23017,110698
9.23278,112480
9.23538,108106
9.23800,109911
9.24060,116155
9.24322,112715
9.24582,109580
9.24842,110051
9.25103,112561
9.25363,109113
9.25625,112386
9.25885,112956
9.26145,111881
9.26407,112557
9.26667,116643
9.26928,110322
9.27188,111721
9.27448,113669
9.27710,108040
9.27970,109745
9.28232,112087
9.28492,112065
9.28752,111495
9.29013,110582
9.29273,107457
9.29535,118848
9.29795,110378
9.30055,115549
9.30317,114715
9.30577,108997
9.30838,112367
9.31098,112432
9.31358,111522
9.31620,110957
9.31880,106282
9.32142,109298
9.32402,105948
9.32663,113174
9.32923,113722
9.33183,112399
9.33445,110418
9.33705,111999
9.33967,109576
9.34227,112268
9.34487,110738
9.34748,107952
9.35008,111189
9.35270,113098
9.35530,109218
9.35790,110546
9.36052,111008
9.36312,113754
9.36573,111844
9.36833,111712
9.37093,110180
9.37355,112654
9.37615,117352
9.37877,111403
9.38137,110400
9.38397,110947
9.38658,108892
9.38918,110271
9.39180,110273
9.39440,107563
9.39700,107912
9.39962,108143
9.40222,108426
9.40483,108931
9.40743,109344
9.41005,109139
9.41265,107514
9.41525,109716
9.41787,108801
9.42047,113894
9.42308,112767
9.42568,106448
9.42828,107219
9.43090,111016
9.43350,107123
9.43612,111817
9.43872,114802
9.44132,111313
9.44393,107237
9.44653,112247
9.44915,112247
9.45175,113190
9.45435,110132
9.45697,112475
9.45957,107717
9.46218,110884
9.46478,113231
9.46738,114038
9.47000,112171
9.47260,114514
9.47522,109934
9.47782,111120
9.48042,115673
9.48303,110064
9.48563,109917
9.48825,109687
9.49085,110924
9.49347,113245
9.49607,111993
9.49867,108312
9.50128,110426
9.50388,107459
9.50650,111166
9.50910,109168
9.51170,109646
9.51432,114404
9.51692,110871
9.51953,108630
9.52213,108293
9.52473,110019
9.52735,111472
9.52995,111591
9.53257,110321
9.53517,117228
9.53777,116787
9.54038,108956
9.54298,107994
9.54560,113407
9.54820,110806
9.55080,110653
9.55342,110534
9.55602,113125
9.55863,110098
9.56123,109118
9.56383,112301
9.56645,112314
9.56905,110890
9.57167,109006
9.57427,108062
9.57688,111075
9.57948,109307
9.58208,104199
9.58470,115259
9.58730,107607
9.58992,113214
9.59252,115691
9.59512,109052
9.59773,113505
9.60033,112440
9.60295,116995
9.60555,114006
9.60815,108092
9.61077,111048
9.61337,109307
9.61598,112855
9.61858,109179
9.62118,112487
9.62380,114539
9.62640,112246
9.62902,109379
9.63162,112253
9.63422,113164
9.63683,104258
9.63943,112479
9.64205,110581
9.64465,110198
9.64725,112298
9.64987,112673
9.65247,110097
9.65508,111984
9.65768,110702
9.66030,111441
9.66290,111430
9.66550,109896
9.66812,109906
9.67072,111538
9.67333,114209
9.67593,114378
9.67853,111420
9.68115,108373
9.68375,111501
9.68637,109426
9.68897,111246
9.69157,109438
9.69418,111932
9.69678,111157
9.69940,109942
9.70200,110727
9.70460,113230
9.70722,109836
9.70982,109226
9.71243,108715
9.71503,113307
9.71763,113574
9.72025,108833
9.72285,108487
9.72547,108042
9.72807,113728
9.73067,115157
9.73328,109655
9.73588,110406
9.73850,113591
9.74110,113720
9.74372,110143
9.74632,111027
9.74892,107600
9.75153,109925
9.75413,110765
9.75675,109697
9.75935,112355
9.76195,110339
9.76457,110727
9.76717,110607
9.76978,115712
9.77238,109006
9.77498,112221
9.77760,111625
9.78020,111671
9.78282,110352
9.78542,110631
9.78802,115625
9.79063,107789
9.79323,118037
9.79585,113042
9.79845,107537
9.80105,112327
9.80367,115522
9.80627,107180
9.80888,113612
9.81148,114311
9.81408,117082
9.81670,107147
9.81930,114020
9.82192,110390
9.82452,112108
9.82713,112694
9.82973,112925
9.83233,109344
9.83495,114187
9.83755,114053
9.84017,109467
9.84277,115285
9.84537,109203
9.84798,109865
9.85058,108019
9.85320,112062
9.85580,108674
9.85840,113451
9.86102,115051
9.86362,112624
9.86623,108605
9.86883,114657
9.87143,112565
9.87405,114647
9.87665,109840
9.87927,110320
9.88187,111732
9.88447,109863
9.88708,113109
9.88968,110516
9.89230,112815
9.89490,110671
9.89750,111003
9.90012,111418
9.90272,108369
9.90533,110010
9.90793,116798
9.91055,112126
9.91315,113831
9.91575,110242
9.91837,110327
9.92097,110014
9.92358,111367
9.92618,111140
9.92878,111534
9.93140,108601
9.93400,110759
9.93662,109873
9.93922,113081
9.94182,113900
9.94443,108452
9.94703,105815
9.94965,111359
9.95225,112052
9.95485,112768
9.95747,108678
9.96007,108281
9.96268,116761
9.96528,107986
9.96788,112270
9.97050,108852
9.97310,113487
9.97572,115016
9.97832,111744
9.98092,112246
9.98353,107161
9.98613,106243
9.98875,111905
9.99135,113405
9.99397,115687
9.99657,110704
9.99917,109575
10.00178,111916
10.00438,109218
10.00700,112569
10.00960,107850
10.01220,112831
10.01482,112319
10.01742,108625
10.02003,117634
10.02263,116210
10.02523,110005
10.02785,108622
10.03045,112814
10.03307,110171
10.03567,110901
10.03827,116920
10.04088,110423
10.04348,114064
10.04610,111474
10.04870,111387
10.05130,117515
10.05392,110895
10.05652,112225
10.05913,113882
10.06173,113683
10.06433,113484
10.06695,112204
10.06955,114245
10.07217,115240
10.07477,112054
10.07738,112644
10.07998,109504
10.08258,115182
10.08520,110260
10.08780,109962
10.09042,113001
10.09302,114215
10.09562,112480
10.09823,110405
10.10083,113542
10.10345,115278
10.10605,110682
10.10865,113848
10.11127,113305
10.11387,114256
10.11648,113399
10.11908,112084
10.12168,112686
10.12430,115151
10.12690,116183
10.12952,114362
10.13212,114203
10.13472,110790
10.13733,112776
10.13993,112195
10.14255,115512
10.14515,109996
10.14775,111804
10.15037,112607
10.15297,109644
10.15558,112511
10.15818,116648
10.16080,112376
10.16340,111375
10.16600,111145
10.16862,115056
10.17122,114338
10.17383,117913
10.17643,110942
10.17903,109752
10.18165,112033
10.18425,113244
10.18687,114080
10.18947,110763
10.19207,110862
10.19468,111780
10.19728,113544
10.19990,115760
10.20250,112485
10.20510,113458
10.20772,117205
10.21032,115518
10.21293,112563
10.21553,113350
10.21813,112004
10.22075,111163
10.22335,116122
10.22597,113708
10.22857,110440
10.23117,110605
10.23378,110849
10.23638,111207
10.23900,114711
10.24160,110450
10.24422,114018
10.24682,112078
10.24942,111724
10.25203,113728
10.25463,114698
10.25725,110199
10.25985,110645
10.26245,109573
10.26507,110235
10.26767,114741
10.27028,113251
10.27288,109645
10.27548,109916
10.27810,113042
10.28070,110436
10.28332,110976
10.28592,110826
10.28852,113298
10.29113,110062
10.29373,113311
10.29635,116078
10.29895,112052
10.30155,111240
10.30417,111979
10.30677,112647
10.30938,108617
10.31198,113060
10.31458,113734
10.31720,106181
10.31980,111480
10.32242,112547
10.32502,112610
10.32763,115954
10.33023,113574
10.33283,110275
10.33545,114441
10.33805,115455
10.34067,116937
10.34327,113506
10.34587,109509
10.34848,109297
10.35108,115801
10.35370,113057
10.35630,112019
10.35890,108474
10.36152,113788
10.36412,112094
10.36673,117096
10.36933,111852
10.37193,108810
10.37455,107578
10.37715,116086
10.37977,110689
10.38237,116492
10.38497,114398
10.38758,111338
10.39018,112472
10.39280,113930
10.39540,113339
10.39800,112411
10.40062,110621
10.40322,116808
10.40583,113209
10.40843,110670
10.41105,114506
10.41365,115327
10.41625,110256
10.41887,113521
10.42147,119109
10.42408,111221
10.42668,114349
10.42928,114761
10.43190,110588
10.43450,113113
10.43712,113060
10.43972,114472
10.44232,113269
10.44493,114744
10.44753,114855
10.45015,114937
10.45275,116113
10.45535,118675
10.45797,117433
10.46057,112554
10.46318,118024
10.46578,119597
10.46838,119238
10.47100,116251
10.47360,119669
10.47622,118201
10.47882,118770
10.48142,117821
10.48403,117124
10.48663,118190
10.48925,119336
10.49185,119208
10.49447,120280
10.49707,116601
10.49967,114209
10.50228,112832
10.50488,117213
10.50750,113469
10.51010,116126
10.51270,115784
10.51532,119473
10.51792,116591
10.52053,116973
10.52313,116542
10.52573,115674
10.52835,113864
10.53095,115063
10.53357,115692
10.53617,115231
10.53877,112074
10.54138,109609
10.54398,115539
10.54660,113374
10.54920,113664
10.55180,119160
10.55442,117038
10.55702,111428
10.55963,115014
10.56223,114922
10.56483,116006
10.56745,112804
10.57005,111443
10.57267,112269
10.57527,111384
10.57788,111345
10.58048,113028
10.58308,115161
10.58570,118789
10.58830,113246
10.59092,109875
10.59352,116149
10.59612,112239
10.59873,113840
10.60133,116837
10.60395,115085
10.60655,111229
10.60915,117039
10.61177,116723
10.61437,114657
10.61698,118755
10.61958,114707
10.62218,116745
10.62480,115353
10.62740,107457
10.63002,110863
10.63262,112250
10.63522,111404
10.63783,112392
10.64043,115234
10.64305,113669
10.64565,112567
10.64825,116843
10.65087,117762
10.65347,117204
10.65608,114483
10.65868,114563
10.66130,115600
