D:\data\overige2021\rk\20200201rk_cocacase28x\B039750.D Mon Feb 01 16:08:25 2021
Start of data points
1.58967,16960
1.59227,14091
1.59487,17487
1.59748,14031
1.60008,12200
1.60270,14829
1.60530,13295
1.60790,15665
1.61052,14420
1.61312,15300
1.61573,12225
1.61833,13301
1.62095,15004
1.62355,12698
1.62615,15104
1.62877,14513
1.63137,14019
1.63398,13810
1.63658,12540
1.63918,13162
1.64180,13016
1.64440,13189
1.64702,12038
1.64962,12336
1.65222,12548
1.65483,11475
1.65743,12286
1.66005,11354
1.66265,12989
1.66525,10587
1.66787,12708
1.67047,11571
1.67308,10904
1.67568,11518
1.67828,11859
1.68090,11605
1.68350,12134
1.68612,11484
1.68872,9952
1.69132,10484
1.69393,9605
1.69653,11714
1.69915,10583
1.70175,11181
1.70437,9931
1.70697,8919
1.70957,9872
1.71218,10405
1.71478,11245
1.71740,11146
1.72000,9560
1.72260,9841
1.72522,9439
1.72782,11899
1.73043,8569
1.73303,10780
1.73563,9279
1.73825,9011
1.74085,10860
1.74347,10729
1.74607,9524
1.74867,10662
1.75128,9439
1.75388,8654
1.75650,10598
1.75910,8562
1.76170,9843
1.76432,9803
1.76692,7937
1.76953,9134
1.77213,8814
1.77473,8853
1.77735,6791
1.77995,9472
1.78257,9482
1.78517,8351
1.78778,8581
1.79038,9357
1.79298,7573
1.79560,9518
1.79820,9376
1.80082,9598
1.80342,9690
1.80602,8807
1.80863,8248
1.81123,8979
1.81385,9084
1.81645,6856
1.81905,8997
1.82167,8676
1.82427,8226
1.82688,8826
1.82948,8381
1.83208,7579
1.83470,7088
1.83730,8113
1.83992,8591
1.84252,6311
1.84512,6491
1.84773,7208
1.85033,6099
1.85295,7202
1.85555,7359
1.85815,8160
1.86077,8128
1.86337,6797
1.86598,7469
1.86858,8768
1.87120,9047
1.87380,9147
1.87640,8344
1.87902,7450
1.88162,7760
1.88423,8420
1.88683,7945
1.88943,7053
1.89205,6806
1.89465,7945
1.89727,7487
1.89987,7521
1.90247,6007
1.90508,6060
1.90768,6092
1.91030,6652
1.91290,5562
1.91550,7776
1.91812,6641
1.92072,7462
1.92333,6707
1.92593,6557
1.92853,6100
1.93115,6583
1.93375,5504
1.93637,7485
1.93897,6843
1.94157,5589
1.94418,7605
1.94678,6528
1.94940,5656
1.95200,5614
1.95462,6652
1.95722,6143
1.95982,6499
1.96243,7048
1.96503,5849
1.96765,7994
1.97025,6735
1.97285,6382
1.97547,6255
1.97807,7779
1.98068,8128
1.98328,6364
1.98588,7147
1.98850,6093
1.99110,6598
1.99372,6671
1.99632,7350
1.99892,6693
2.00153,6523
2.00413,5794
2.00675,6037
2.00935,5355
2.01195,5759
2.01457,6339
2.01717,8285
2.01978,6414
2.02238,6672
2.02498,5427
2.02760,6577
2.03020,7250
2.03282,6009
2.03542,7276
2.03803,8675
2.04063,9939
2.04323,9091
2.04585,10883
2.04845,10474
2.05107,9475
2.05367,10343
2.05627,9477
2.05888,9984
2.06148,6967
2.06410,7474
2.06670,7328
2.06930,7702
2.07192,8187
2.07452,8411
2.07713,7839
2.07973,8078
2.08233,7189
2.08495,7561
2.08755,8172
2.09017,7335
2.09277,7051
2.09537,6331
2.09798,6478
2.10058,7217
2.10320,6000
2.10580,6317
2.10840,7045
2.11102,7467
2.11362,6506
2.11623,7414
2.11883,6308
2.12145,7414
2.12405,6410
2.12665,7231
2.12927,6204
2.13187,6247
2.13448,7634
2.13708,6362
2.13968,6415
2.14230,6333
2.14490,7402
2.14752,6610
2.15012,7414
2.15272,6286
2.15533,6999
2.15793,6176
2.16055,5748
2.16315,6350
2.16575,5060
2.16837,6392
2.17097,5164
2.17358,6347
2.17618,6730
2.17878,6298
2.18140,7131
2.18400,6712
2.18662,6036
2.18922,6271
2.19182,7020
2.19443,6428
2.19703,5090
2.19965,5503
2.20225,5024
2.20487,6075
2.20747,6554
2.21007,6254
2.21268,6760
2.21528,6185
2.21790,4983
2.22050,7711
2.22310,6177
2.22572,6509
2.22832,5043
2.23093,6134
2.23353,4956
2.23613,5444
2.23875,5317
2.24135,5632
2.24397,6242
2.24657,5663
2.24917,5351
2.25178,6434
2.25438,5274
2.25700,6102
2.25960,6509
2.26220,5788
2.26482,5446
2.26742,6374
2.27003,6986
2.27263,6645
2.27523,6918
2.27785,6306
2.28045,6430
2.28307,5367
2.28567,6813
2.28828,5614
2.29088,5022
2.29348,7009
2.29610,6046
2.29870,5652
2.30132,6415
2.30392,5684
2.30652,5620
2.30913,5306
2.31173,6987
2.31435,7006
2.31695,7747
2.31955,5153
2.32217,6179
2.32477,5230
2.32738,5065
2.32998,5502
2.33258,6405
2.33520,5323
2.33780,5990
2.34042,5277
2.34302,6002
2.34562,4817
2.34823,5376
2.35083,6375
2.35345,5871
2.35605,5480
2.35865,6377
2.36127,5407
2.36387,5342
2.36648,5260
2.36908,6075
2.37170,6152
2.37430,5826
2.37690,7037
2.37952,5423
2.38212,5976
2.38473,6964
2.38733,5575
2.38993,5592
2.39255,6983
2.39515,5903
2.39777,4217
2.40037,5493
2.40297,6833
2.40558,5814
2.40818,5224
2.41080,6251
2.41340,5374
2.41600,6021
2.41862,6904
2.42122,6496
2.42383,5999
2.42643,5068
2.42903,6557
2.43165,5529
2.43425,4994
2.43687,6708
2.43947,5483
2.44207,5321
2.44468,6099
2.44728,4813
2.44990,6513
2.45250,6987
2.45512,7477
2.45772,8855
2.46032,8089
2.46293,8005
2.46553,9251
2.46815,7338
2.47075,7646
2.47335,7687
2.47597,8024
2.47857,8563
2.48118,7383
2.48378,7210
2.48638,6983
2.48900,7072
2.49160,7350
2.49422,5883
2.49682,6124
2.49942,5925
2.50203,6856
2.50463,6032
2.50725,5568
2.50985,6223
2.51245,6963
2.51507,5239
2.51767,5868
2.52028,5521
2.52288,6545
2.52548,6271
2.52810,7276
2.53070,6456
2.53332,5850
2.53592,5907
2.53853,6350
2.54113,5643
2.54373,5028
2.54635,5596
2.54895,6507
2.55157,6142
2.55417,4920
2.55677,5801
2.55938,6058
2.56198,4465
2.56460,6931
2.56720,3993
2.56980,5001
2.57242,6167
2.57502,4849
2.57763,5322
2.58023,5671
2.58283,5625
2.58545,4902
2.58805,5409
2.59067,5140
2.59327,4355
2.59587,6283
2.59848,5822
2.60108,6116
2.60370,5810
2.60630,6226
2.60890,5357
2.61152,5041
2.61412,6874
2.61673,5302
2.61933,5351
2.62195,6857
2.62455,5068
2.62715,6207
2.62977,5552
2.63237,5900
2.63498,5184
2.63758,5347
2.64018,6096
2.64280,5288
2.64540,5305
2.64802,6184
2.65062,6613
2.65322,5727
2.65583,4829
2.65843,5615
2.66105,6422
2.66365,5499
2.66625,5248
2.66887,5504
2.67147,5253
2.67408,5857
2.67668,6820
2.67928,5615
2.68190,5754
2.68450,5542
2.68712,5580
2.68972,5030
2.69232,5616
2.69493,6037
2.69753,6502
2.70015,4545
2.70275,5951
2.70537,5306
2.70797,6663
2.71057,5311
2.71318,5786
2.71578,4208
2.71840,5699
2.72100,6021
2.72360,5662
2.72622,5536
2.72882,5141
2.73143,6879
2.73403,5896
2.73663,4507
2.73925,5883
2.74185,6712
2.74447,5262
2.74707,4434
2.74967,6234
2.75228,5779
2.75488,5586
2.75750,6976
2.76010,4479
2.76270,5092
2.76532,6915
2.76792,4900
2.77053,6714
2.77313,5724
2.77573,4963
2.77835,6235
2.78095,5335
2.78357,5479
2.78617,5415
2.78878,4777
2.79138,4866
2.79398,4123
2.79660,6419
2.79920,6133
2.80182,5721
2.80442,5874
2.80702,6930
2.80963,4450
2.81223,4837
2.81485,6302
2.81745,5631
2.82005,5378
2.82267,5445
2.82527,4798
2.82788,5002
2.83048,4244
2.83308,5821
2.83570,4214
2.83830,6603
2.84092,5371
2.84352,6801
2.84612,4318
2.84873,6072
2.85133,4541
2.85395,6856
2.85655,6216
2.85915,5725
2.86177,6046
2.86437,6244
2.86698,6321
2.86958,6170
2.87220,5587
2.87480,5601
2.87740,5084
2.88002,5356
2.88262,6045
2.88523,5298
2.88783,6104
2.89043,6155
2.89305,6464
2.89565,5189
2.89827,5011
2.90087,6272
2.90347,6025
2.90608,5801
2.90868,5526
2.91130,5317
2.91390,5174
2.91650,5453
2.91912,5279
2.92172,5221
2.92433,6034
2.92693,5552
2.92953,5620
2.93215,5829
2.93475,4648
2.93737,4591
2.93997,5627
2.94257,6347
2.94518,4044
2.94778,5767
2.95040,4824
2.95300,6954
2.95562,6083
2.95822,5622
2.96082,5046
2.96343,4306
2.96603,5337
2.96865,5059
2.97125,6584
2.97385,5183
2.97647,6291
2.97907,7276
2.98168,6102
2.98428,5229
2.98688,5421
2.98950,6965
2.99210,5533
2.99472,5363
2.99732,5070
2.99992,5506
3.00253,5738
3.00513,5862
3.00775,5740
3.01035,4368
3.01295,5194
3.01557,6102
3.01817,5711
3.02078,5364
3.02338,5540
3.02598,4935
3.02860,6001
3.03120,4794
3.03382,4805
3.03642,5639
3.03903,5550
3.04163,5312
3.04423,4569
3.04685,4911
3.04945,5974
3.05207,5123
3.05467,6749
3.05727,4921
3.05988,5771
3.06248,6321
3.06510,6603
3.06770,5469
3.07030,6561
3.07292,4509
3.07552,5401
3.07813,4805
3.08073,5675
3.08333,4730
3.08595,4525
3.08855,4767
3.09117,6712
3.09377,4709
3.09637,5884
3.09898,5651
3.10158,4615
3.10420,6391
3.10680,6009
3.10940,4739
3.11202,4292
3.11462,5415
3.11723,8196
3.11983,10079
3.12245,14391
3.12505,16969
3.12765,19487
3.13027,19034
3.13287,18658
3.13548,19257
3.13808,18428
3.14068,15419
3.14330,14856
3.14590,14240
3.14852,13380
3.15112,12939
3.15372,11930
3.15633,10575
3.15893,10092
3.16155,10272
3.16415,10150
3.16675,11641
3.16937,9938
3.17197,10045
3.17458,9220
3.17718,9490
3.17978,9230
3.18240,8075
3.18500,8429
3.18762,8192
3.19022,9621
3.19282,8480
3.19543,7244
3.19803,8142
3.20065,6902
3.20325,7968
3.20587,6522
3.20847,7214
3.21107,7346
3.21368,7329
3.21628,5634
3.21890,7833
3.22150,6817
3.22410,7857
3.22672,7013
3.22932,7196
3.23193,7476
3.23453,6506
3.23713,7075
3.23975,6644
3.24235,6078
3.24497,7084
3.24757,6497
3.25017,6847
3.25278,7283
3.25538,6245
3.25800,5896
3.26060,6682
3.26320,6080
3.26582,6304
3.26842,6962
3.27103,6748
3.27363,7046
3.27623,6714
3.27885,6840
3.28145,6719
3.28407,8049
3.28667,6921
3.28928,5722
3.29188,5150
3.29448,6525
3.29710,6641
3.29970,6785
3.30232,6738
3.30492,6280
3.30752,4957
3.31013,6218
3.31273,5337
3.31535,5890
3.31795,5414
3.32055,5466
3.32317,5264
3.32577,6784
3.32838,6017
3.33098,4515
3.33358,7168
3.33620,7266
3.33880,5226
3.34142,6446
3.34402,4887
3.34662,6647
3.34923,6387
3.35183,7373
3.35445,5481
3.35705,5653
3.35965,5174
3.36227,6273
3.36487,5981
3.36748,6307
3.37008,6199
3.37270,6522
3.37530,4287
3.37790,6205
3.38052,5609
3.38312,6450
3.38573,5629
3.38833,6019
3.39093,6985
3.39355,8482
3.39615,8192
3.39877,8207
3.40137,9035
3.40397,8896
3.40658,7010
3.40918,7795
3.41180,7865
3.41440,6522
3.41700,6840
3.41962,7172
3.42222,7339
3.42483,7042
3.42743,6492
3.43003,6527
3.43265,7597
3.43525,6053
3.43787,8772
3.44047,5428
3.44307,5896
3.44568,6714
3.44828,6699
3.45090,7058
3.45350,5366
3.45612,7316
3.45872,7171
3.46132,5909
3.46393,5551
3.46653,5589
3.46915,5668
3.47175,6447
3.47435,6428
3.47697,6690
3.47957,6066
3.48218,6378
3.48478,6322
3.48738,5691
3.49000,5129
3.49260,5853
3.49522,6317
3.49782,6304
3.50042,6741
3.50303,6836
3.50563,6388
3.50825,7164
3.51085,9392
3.51345,14732
3.51607,25715
3.51867,36758
3.52128,45329
3.52388,42011
3.52648,40275
3.52910,27993
3.53170,24466
3.53432,18080
3.53692,16613
3.53953,15860
3.54213,12737
3.54473,11228
3.54735,11848
3.54995,11814
3.55257,10307
3.55517,9554
3.55777,12013
3.56038,10392
3.56298,9829
3.56560,10417
3.56820,9461
3.57080,11139
3.57342,9829
3.57602,11218
3.57863,10762
3.58123,11350
3.58383,12910
3.58645,10436
3.58905,9365
3.59167,7696
3.59427,9816
3.59687,9650
3.59948,10708
3.60208,9629
3.60470,8796
3.60730,10589
3.60990,12228
3.61252,9953
3.61512,9641
3.61773,10397
3.62033,9168
3.62295,9811
3.62555,7980
3.62815,9199
3.63077,10829
3.63337,9256
3.63598,10773
3.63858,11268
3.64118,12076
3.64380,11343
3.64640,11279
3.64902,11546
3.65162,10244
3.65422,9889
3.65683,10200
3.65943,9118
3.66205,10706
3.66465,10497
3.66725,9554
3.66987,10621
3.67247,9184
3.67508,10080
3.67768,9611
3.68028,8413
3.68290,8495
3.68550,10503
3.68812,10084
3.69072,10724
3.69332,10500
3.69593,9290
3.69853,9239
3.70115,9695
3.70375,8756
3.70637,9755
3.70897,9270
3.71157,10006
3.71418,10487
3.71678,9790
3.71940,9702
3.72200,9504
3.72460,9057
3.72722,9658
3.72982,9249
3.73243,8591
3.73503,8523
3.73763,9942
3.74025,8738
3.74285,8597
3.74547,9826
3.74807,8838
3.75067,8052
3.75328,9347
3.75588,9355
3.75850,9163
3.76110,8716
3.76370,10034
3.76632,8589
3.76892,8279
3.77153,9140
3.77413,7058
3.77673,10569
3.77935,8806
3.78195,9187
3.78457,8426
3.78717,8337
3.78978,9083
3.79238,9580
3.79498,8028
3.79760,8928
3.80020,8572
3.80282,9258
3.80542,8354
3.80802,7877
3.81063,9456
3.81323,8211
3.81585,8273
3.81845,9350
3.82105,9068
3.82367,7728
3.82627,8099
3.82888,7977
3.83148,8794
3.83408,9529
3.83670,9880
3.83930,8792
3.84192,9487
3.84452,9343
3.84712,8471
3.84973,10277
3.85233,7772
3.85495,8292
3.85755,8719
3.86015,8229
3.86277,8749
3.86537,7802
3.86798,9526
3.87058,9342
3.87320,9705
3.87580,9167
3.87840,9778
3.88102,9759
3.88362,8722
3.88623,7648
3.88883,9254
3.89143,8358
3.89405,9697
3.89665,8942
3.89927,9149
3.90187,9474
3.90447,8302
3.90708,9784
3.90968,9123
3.91230,10470
3.91490,9379
3.91750,7744
3.92012,9557
3.92272,7964
3.92533,9341
3.92793,9685
3.93053,10236
3.93315,13184
3.93575,14377
3.93837,17656
3.94097,14503
3.94357,15603
3.94618,12178
3.94878,10597
3.95140,11674
3.95400,11371
3.95662,8848
3.95922,10495
3.96182,10811
3.96443,10477
3.96703,10660
3.96965,10334
3.97225,8919
3.97485,8789
3.97747,9093
3.98007,8938
3.98268,8879
3.98528,9703
3.98788,9004
3.99050,8479
3.99310,7637
3.99572,9466
3.99832,9445
4.00092,7740
4.00353,8078
4.00613,8516
4.00875,8663
4.01135,8535
4.01395,9465
4.01657,9019
4.01917,9806
4.02178,7874
4.02438,8892
4.02698,9055
4.02960,9094
4.03220,9903
4.03482,9376
4.03742,8337
4.04003,10224
4.04263,9889
4.04523,8719
4.04785,8957
4.05045,9558
4.05307,8401
4.05567,8995
4.05827,8601
4.06088,8854
4.06348,9422
4.06610,9883
4.06870,10443
4.07130,7625
4.07392,10033
4.07652,9614
4.07913,9475
4.08173,8574
4.08433,9894
4.08695,8631
4.08955,10743
4.09217,8321
4.09477,9268
4.09737,8641
4.09998,9499
4.10258,9028
4.10520,9560
4.10780,9367
4.11040,8566
4.11302,9881
4.11562,9292
4.11823,8900
4.12083,7926
4.12345,8972
4.12605,9984
4.12865,10640
4.13127,8342
4.13387,7710
4.13648,8484
4.13908,8637
4.14168,8352
4.14430,8855
4.14690,8295
4.14952,8382
4.15212,9421
4.15472,9026
4.15733,8573
4.15993,9593
4.16255,8758
4.16515,9678
4.16775,7320
4.17037,8722
4.17297,9148
4.17558,9194
4.17818,8105
4.18078,8592
4.18340,8285
4.18600,9138
4.18862,9120
4.19122,9925
4.19382,8400
4.19643,8976
4.19903,8218
4.20165,10030
4.20425,7832
4.20687,9345
4.20947,8012
4.21207,9573
4.21468,9780
4.21728,10170
4.21990,8379
4.22250,9110
4.22510,8860
4.22772,7992
4.23032,7949
4.23293,8156
4.23553,9351
4.23813,9616
4.24075,9023
4.24335,8634
4.24597,8510
4.24857,8442
4.25117,9913
4.25378,8096
4.25638,8778
4.25900,9513
4.26160,10007
4.26420,10176
4.26682,7463
4.26942,7358
4.27203,8377
4.27463,7913
4.27723,8254
4.27985,9962
4.28245,8788
4.28507,7878
4.28767,8206
4.29028,7361
4.29288,9705
4.29548,8277
4.29810,8291
4.30070,9705
4.30332,7237
4.30592,8296
4.30852,9494
4.31113,7848
4.31373,7380
4.31635,8025
4.31895,8208
4.32155,8664
4.32417,8418
4.32677,8004
4.32938,8479
4.33198,7825
4.33458,9072
4.33720,9063
4.33980,9015
4.34242,7648
4.34502,7388
4.34762,9521
4.35023,8184
4.35283,7562
4.35545,9157
4.35805,7908
4.36065,9730
4.36327,8308
4.36587,8854
4.36848,8558
4.37108,10117
4.37370,7974
4.37630,8245
4.37890,8485
4.38152,8773
4.38412,8208
4.38673,7335
4.38933,8340
4.39193,6531
4.39455,8133
4.39715,9570
4.39977,8682
4.40237,9131
4.40497,7171
4.40758,9428
4.41018,7951
4.41280,8926
4.41540,8702
4.41800,8267
4.42062,9323
4.42322,8998
4.42583,8514
4.42843,8922
4.43103,8846
4.43365,6886
4.43625,8823
4.43887,8694
4.44147,9375
4.44407,9094
4.44668,8785
4.44928,9637
4.45190,9762
4.45450,7908
4.45712,7746
4.45972,8765
4.46232,9271
4.46493,9856
4.46753,8830
4.47015,7760
4.47275,7456
4.47535,8444
4.47797,7461
4.48057,7589
4.48318,9772
4.48578,9181
4.48838,8525
4.49100,9314
4.49360,8745
4.49622,10136
4.49882,7442
4.50142,7906
4.50403,8779
4.50663,9962
4.50925,8985
4.51185,8978
4.51445,9186
4.51707,8700
4.51967,9075
4.52228,7858
4.52488,9667
4.52748,8650
4.53010,8777
4.53270,7668
4.53532,6867
4.53792,9430
4.54053,7517
4.54313,6841
4.54573,9395
4.54835,9222
4.55095,8459
4.55357,9434
4.55617,9331
4.55877,9212
4.56138,8834
4.56398,9228
4.56660,9299
4.56920,10135
4.57180,9185
4.57442,7781
4.57702,7814
4.57963,9125
4.58223,8971
4.58483,8605
4.58745,8267
4.59005,8318
4.59267,8438
4.59527,9167
4.59787,8920
4.60048,7942
4.60308,7976
4.60570,7868
4.60830,8923
4.61090,7459
4.61352,8145
4.61612,8418
4.61873,8713
4.62133,8845
4.62395,8026
4.62655,8798
4.62915,10773
4.63177,8312
4.63437,8469
4.63698,10284
4.63958,10036
4.64218,8249
4.64480,7831
4.64740,7841
4.65002,8107
4.65262,9168
4.65522,9529
4.65783,9557
4.66043,7501
4.66305,7689
4.66565,9280
4.66825,8918
4.67087,8688
4.67347,8022
4.67608,9233
4.67868,10349
4.68128,9408
4.68390,8704
4.68650,7220
4.68912,9452
4.69172,8154
4.69432,8576
4.69693,8625
4.69953,10062
4.70215,8756
4.70475,10098
4.70737,9883
4.70997,10328
4.71257,9000
4.71518,9510
4.71778,9318
4.72040,8485
4.72300,9500
4.72560,9969
4.72822,8720
4.73082,8460
4.73343,10218
4.73603,7735
4.73863,7722
4.74125,8037
4.74385,8801
4.74647,8990
4.74907,8058
4.75167,8791
4.75428,9293
4.75688,7968
4.75950,10245
4.76210,9587
4.76470,9421
4.76732,9020
4.76992,8756
4.77253,8442
4.77513,9627
4.77773,11856
4.78035,25926
4.78295,87129
4.78557,247530
4.78817,628823
4.79078,1331248
4.79338,2374068
4.79598,3532854
4.79860,4066079
4.80120,3254379
4.80382,1868362
4.80642,790955
4.80902,341819
4.81163,195280
4.81423,135960
4.81685,106365
4.81945,92394
4.82205,77197
4.82467,71926
4.82727,61586
4.82988,55210
4.83248,53413
4.83508,47584
4.83770,44450
4.84030,39744
4.84292,38165
4.84552,35568
4.84812,34138
4.85073,31853
4.85333,33002
4.85595,29048
4.85855,29913
4.86115,30072
4.86377,30358
4.86637,28471
4.86898,26935
4.87158,26316
4.87420,24190
4.87680,22289
4.87940,22021
4.88202,23361
4.88462,21147
4.88723,20671
4.88983,21427
4.89243,20423
4.89505,21254
4.89765,17961
4.90027,16419
4.90287,17861
4.90547,20096
4.90808,16771
4.91068,17640
4.91330,18833
4.91590,17683
4.91850,16880
4.92112,15885
4.92372,17456
4.92633,17410
4.92893,17662
4.93153,15543
4.93415,15605
4.93675,16503
4.93937,17139
4.94197,14077
4.94457,15149
4.94718,16749
4.94978,16904
4.95240,14417
4.95500,15576
4.95762,15355
4.96022,16649
4.96282,15007
4.96543,15212
4.96803,14259
4.97065,14831
4.97325,13129
4.97585,15152
4.97847,13852
4.98107,13215
4.98368,12018
4.98628,13638
4.98888,13328
4.99150,14359
4.99410,12915
4.99672,12858
4.99932,14483
5.00192,13090
5.00453,13330
5.00713,12999
5.00975,13717
5.01235,12768
5.01495,12100
5.01757,13663
5.02017,13237
5.02278,12169
5.02538,13868
5.02798,13010
5.03060,12708
5.03320,11225
5.03582,12883
5.03842,12036
5.04103,13487
5.04363,12935
5.04623,12740
5.04885,11570
5.05145,14128
5.05407,11427
5.05667,13084
5.05927,12485
5.06188,12808
5.06448,13906
5.06710,12325
5.06970,12850
5.07230,11270
5.07492,12614
5.07752,12422
5.08013,12521
5.08273,12846
5.08533,11411
5.08795,10478
5.09055,13589
5.09317,13431
5.09577,11319
5.09837,12040
5.10098,12156
5.10358,13533
5.10620,13108
5.10880,10680
5.11140,13597
5.11402,11970
5.11662,12736
5.11923,12449
5.12183,10749
5.12445,12764
5.12705,10842
5.12965,11071
5.13227,12337
5.13487,12573
5.13748,12626
5.14008,10014
5.14268,11504
5.14530,11965
5.14790,12279
5.15052,11664
5.15312,11368
5.15572,12000
5.15833,10150
5.16093,11587
5.16355,11618
5.16615,10826
5.16875,11035
5.17137,10247
5.17397,12752
5.17658,11868
5.17918,9635
5.18178,10448
5.18440,11735
5.18700,11249
5.18962,12731
5.19222,11713
5.19482,10561
5.19743,9784
5.20003,11533
5.20265,10268
5.20525,10328
5.20787,10001
5.21047,10506
5.21307,11877
5.21568,11032
5.21828,12421
5.22090,12912
5.22350,9812
5.22610,11828
5.22872,12716
5.23132,11403
5.23393,10618
5.23653,10698
5.23913,10747
5.24175,10746
5.24435,9795
5.24697,11592
5.24957,10524
5.25217,11329
5.25478,10683
5.25738,9791
5.26000,9973
5.26260,10258
5.26520,10626
5.26782,9690
5.27042,10838
5.27303,11314
5.27563,9570
5.27823,10508
5.28085,10634
5.28345,10403
5.28607,10668
5.28867,9764
5.29128,10573
5.29388,11816
5.29648,10641
5.29910,11282
5.30170,10689
5.30432,9370
5.30692,9710
5.30952,9788
5.31213,10265
5.31473,12917
5.31735,11981
5.31995,10576
5.32255,10838
5.32517,10204
5.32777,10391
5.33038,10288
5.33298,10766
5.33558,12020
5.33820,10867
5.34080,10823
5.34342,13127
5.34602,10107
5.34862,11274
5.35123,10133
5.35383,10691
5.35645,10856
5.35905,10457
5.36165,10905
5.36427,10711
5.36687,10250
5.36948,11227
5.37208,9646
5.37470,9510
5.37730,9600
5.37990,10032
5.38252,10858
5.38512,9788
5.38773,9686
5.39033,11511
5.39293,8902
5.39555,10407
5.39815,11300
5.40077,8554
5.40337,9990
5.40597,10728
5.40858,9024
5.41118,9826
5.41380,10077
5.41640,9932
5.41900,9744
5.42162,9959
5.42422,9197
5.42683,11614
5.42943,10552
5.43203,10425
5.43465,10551
5.43725,8910
5.43987,9319
5.44247,9450
5.44508,11420
5.44768,11341
5.45028,12199
5.45290,13595
5.45550,14154
5.45812,14813
5.46072,13339
5.46332,13724
5.46593,13293
5.46853,12217
5.47115,10642
5.47375,11817
5.47635,10443
5.47897,12029
5.48157,10418
5.48418,10187
5.48678,10291
5.48938,9890
5.49200,12727
5.49460,12579
5.49722,10558
5.49982,10060
5.50242,11923
5.50503,10315
5.50763,10427
5.51025,10444
5.51285,10825
5.51545,11353
5.51807,10441
5.52067,10746
5.52328,9937
5.52588,10962
5.52850,9343
5.53110,9461
5.53370,11828
5.53632,9617
5.53892,10190
5.54153,11065
5.54413,10870
5.54673,10857
5.54935,9334
5.55195,10580
5.55457,10044
5.55717,10021
5.55977,11151
5.56238,10868
5.56498,8485
5.56760,9967
5.57020,11187
5.57280,9809
5.57542,10276
5.57802,10146
5.58063,8940
5.58323,10058
5.58583,10913
5.58845,10551
5.59105,11739
5.59367,10612
5.59627,10244
5.59887,10942
5.60148,9986
5.60408,9935
5.60670,10905
5.60930,9650
5.61192,10907
5.61452,9831
5.61712,9964
5.61973,12386
5.62233,10437
5.62495,8744
5.62755,10743
5.63015,10183
5.63277,10132
5.63537,12184
5.63798,10237
5.64058,10840
5.64318,11343
5.64580,11672
5.64840,11513
5.65102,10433
5.65362,9786
5.65622,10158
5.65883,11285
5.66143,11501
5.66405,11089
5.66665,11581
5.66925,10495
5.67187,8899
5.67447,9312
5.67708,11080
5.67968,9584
5.68228,9394
5.68490,13011
5.68750,11709
5.69012,10457
5.69272,10397
5.69533,8839
5.69793,10079
5.70053,10516
5.70315,12070
5.70575,12783
5.70837,11440
5.71097,11132
5.71357,10601
5.71618,11438
5.71878,10433
5.72140,10540
5.72400,11129
5.72660,11232
5.72922,12947
5.73182,10532
5.73443,8578
5.73703,10707
5.73963,9340
5.74225,10790
5.74485,8954
5.74747,10407
5.75007,11479
5.75267,10481
5.75528,8495
5.75788,10107
5.76050,10552
5.76310,9841
5.76570,10540
5.76832,7844
5.77092,9841
5.77353,11628
5.77613,11617
5.77875,11126
5.78135,10385
5.78395,9902
5.78657,9989
5.78917,10808
5.79178,10014
5.79438,11113
5.79698,9758
5.79960,10808
5.80220,11638
5.80482,11348
5.80742,10581
5.81002,10575
5.81263,12142
5.81523,13836
5.81785,19788
5.82045,25217
5.82305,26869
5.82567,27503
5.82827,21822
5.83088,18263
5.83348,12677
5.83608,11784
5.83870,14533
5.84130,16105
5.84392,16204
5.84652,14798
5.84912,14919
5.85173,13748
5.85433,11742
5.85695,11790
5.85955,11989
5.86217,11130
5.86477,11723
5.86737,11775
5.86998,11766
5.87258,11795
5.87520,10443
5.87780,10846
5.88040,12347
5.88302,10649
5.88562,12263
5.88823,11416
5.89083,11689
5.89343,11410
5.89605,11190
5.89865,11330
5.90127,9700
5.90387,13328
5.90647,9959
5.90908,11930
5.91168,11518
5.91430,11612
5.91690,12762
5.91950,12412
5.92212,11150
5.92472,13209
5.92733,13684
5.92993,14676
5.93253,16061
5.93515,15628
5.93775,15281
5.94037,14769
5.94297,16703
5.94558,14646
5.94818,12817
5.95078,13756
5.95340,12218
5.95600,12067
5.95862,14384
5.96122,15976
5.96382,12047
5.96643,11885
5.96903,12792
5.97165,12637
5.97425,12526
5.97685,12578
5.97947,11483
5.98207,13853
5.98468,14424
5.98728,13636
5.98988,14610
5.99250,12744
5.99510,13376
5.99772,11591
6.00032,12425
6.00292,10839
6.00553,12697
6.00813,11522
6.01075,10693
6.01335,11770
6.01595,11877
6.01857,13259
6.02117,11483
6.02378,12154
6.02638,11664
6.02900,13212
6.03160,11189
6.03420,12153
6.03682,11367
6.03942,13527
6.04203,13741
6.04463,15761
6.04723,15804
6.04985,17773
6.05245,21243
6.05507,20886
6.05767,17632
6.06027,17078
6.06288,16924
6.06548,15710
6.06810,14695
6.07070,14719
6.07330,15349
6.07592,14292
6.07852,13481
6.08113,13028
6.08373,12896
6.08633,14183
6.08895,11698
6.09155,14032
6.09417,14201
6.09677,12385
6.09937,12799
6.10198,13613
6.10458,13460
6.10720,15020
6.10980,16936
6.11242,13127
6.11502,13108
6.11762,13546
6.12023,14194
6.12283,13967
6.12545,14167
6.12805,17837
6.13065,14666
6.13327,15555
6.13587,14000
6.13848,13414
6.14108,12873
6.14368,13180
6.14630,13052
6.14890,12365
6.15152,12086
6.15412,10771
6.15672,12357
6.15933,10843
6.16193,12260
6.16455,12749
6.16715,13933
6.16975,13000
6.17237,11972
6.17497,12848
6.17758,12325
6.18018,13596
6.18278,12915
6.18540,12625
6.18800,10604
6.19062,13006
6.19322,11030
6.19583,13398
6.19843,11833
6.20103,12061
6.20365,12638
6.20625,11262
6.20887,12806
6.21147,13237
6.21407,11659
6.21668,13380
6.21928,12284
6.22190,12933
6.22450,11009
6.22710,12514
6.22972,13292
6.23232,10060
6.23493,11000
6.23753,11568
6.24013,11200
6.24275,11470
6.24535,11813
6.24797,11898
6.25057,13130
6.25317,12538
6.25578,12591
6.25838,11404
6.26100,10143
6.26360,11651
6.26620,11520
6.26882,13218
6.27142,12243
6.27403,11652
6.27663,12512
6.27925,11839
6.28185,10510
6.28445,12622
6.28707,11395
6.28967,12263
6.29228,11556
6.29488,11793
6.29748,10809
6.30010,11675
6.30270,11609
6.30532,11443
6.30792,12546
6.31052,12071
6.31313,11101
6.31573,11575
6.31835,11430
6.32095,10447
6.32355,11318
6.32617,11559
6.32877,11116
6.33138,12028
6.33398,11883
6.33658,11136
6.33920,12214
6.34180,10437
6.34442,12361
6.34702,12617
6.34962,13298
6.35223,12999
6.35483,12177
6.35745,12029
6.36005,12559
6.36267,11794
6.36527,10972
6.36787,11998
6.37048,10561
6.37308,10983
6.37570,10208
6.37830,10797
6.38090,12186
6.38352,12981
6.38612,11585
6.38873,12803
6.39133,12556
6.39393,11398
6.39655,11270
6.39915,11603
6.40177,11673
6.40437,11320
6.40697,13109
6.40958,13389
6.41218,13111
6.41480,13078
6.41740,12745
6.42000,11623
6.42262,10415
6.42522,11839
6.42783,11181
6.43043,12096
6.43303,11076
6.43565,12792
6.43825,12192
6.44087,10744
6.44347,12885
6.44608,13646
6.44868,11540
6.45128,11905
6.45390,13405
6.45650,12489
6.45912,11487
6.46172,12809
6.46432,11721
6.46693,10628
6.46953,11712
6.47215,12341
6.47475,10722
6.47735,12593
6.47997,13910
6.48257,13138
6.48518,12412
6.48778,13565
6.49038,18346
6.49300,27162
6.49560,50046
6.49822,114502
6.50082,205906
6.50342,315204
6.50603,386854
6.50863,354649
6.51125,264099
6.51385,156495
6.51645,92955
6.51907,62033
6.52167,48063
6.52428,39852
6.52688,33177
6.52950,32663
6.53210,28717
6.53470,26416
6.53732,24792
6.53992,24750
6.54253,24835
6.54513,22983
6.54773,19561
6.55035,19299
6.55295,20019
6.55557,20344
6.55817,19575
6.56077,19218
6.56338,19353
6.56598,18539
6.56860,18363
6.57120,18422
6.57380,17105
6.57642,17862
6.57902,18426
6.58163,18152
6.58423,19389
6.58683,24023
6.58945,47208
6.59205,173933
6.59467,655688
6.59727,2092430
6.59987,5170833
6.60248,9591806
6.60508,1.50213E+07
6.60770,2.086374E+07
6.61030,2.629834E+07
6.61292,2.934581E+07
6.61552,2.802332E+07
6.61812,1.837933E+07
6.62073,6416813
6.62333,1588192
6.62595,478701
6.62855,238410
6.63115,160291
6.63377,128852
6.63637,110924
6.63898,92492
6.64158,81283
6.64418,73806
6.64680,63968
6.64940,62347
6.65202,57654
6.65462,53908
6.65722,49206
6.65983,51912
6.66243,44835
6.66505,45607
6.66765,42581
6.67025,42664
6.67287,39174
6.67547,38653
6.67808,37608
6.68068,34798
6.68328,36969
6.68590,31417
6.68850,33153
6.69112,30641
6.69372,30086
6.69633,29885
6.69893,29469
6.70153,27980
6.70415,27270
6.70675,30075
6.70937,27141
6.71197,25521
6.71457,27100
6.71718,27039
6.71978,25489
6.72240,24020
6.72500,24836
6.72760,24004
6.73022,25202
6.73282,25310
6.73543,24686
6.73803,25750
6.74063,21629
6.74325,23880
6.74585,24546
6.74847,24162
6.75107,22112
6.75367,21762
6.75628,21747
6.75888,24458
6.76150,22188
6.76410,23943
6.76670,24018
6.76932,28955
6.77192,29034
6.77453,28229
6.77713,25291
6.77975,20942
6.78235,21094
6.78495,21590
6.78757,20125
6.79017,19550
6.79278,19499
6.79538,18386
6.79798,19797
6.80060,20430
6.80320,20257
6.80582,20093
6.80842,20146
6.81102,19929
6.81363,19506
6.81623,20285
6.81885,19655
6.82145,20774
6.82405,18650
6.82667,18914
6.82927,17888
6.83188,17962
6.83448,19326
6.83708,20389
6.83970,19568
6.84230,18495
6.84492,17656
6.84752,17994
6.85012,17517
6.85273,19485
6.85533,17968
6.85795,19105
6.86055,25713
6.86317,32044
6.86577,38975
6.86837,38142
6.87098,40856
6.87358,40205
6.87620,44618
6.87880,52804
6.88140,54238
6.88402,57631
6.88662,48094
6.88923,40361
6.89183,30601
6.89443,30271
6.89705,22567
6.89965,23478
6.90227,19708
6.90487,21294
6.90747,20768
6.91008,21982
6.91268,20332
6.91530,19975
6.91790,19960
6.92050,18663
6.92312,18115
6.92572,18927
6.92833,20541
6.93093,19523
6.93353,22959
6.93615,26452
6.93875,25998
6.94137,24923
6.94397,24294
6.94658,21544
6.94918,21489
6.95178,19068
6.95440,21000
6.95700,20931
6.95962,19464
6.96222,20696
6.96482,19361
6.96743,19297
6.97003,18255
6.97265,20101
6.97525,17515
6.97785,16364
6.98047,19319
6.98307,16779
6.98568,18661
6.98828,19006
6.99088,18541
6.99350,17849
6.99610,18789
6.99872,18809
7.00132,17612
7.00392,16785
7.00653,19469
7.00913,17826
7.01175,16787
7.01435,18007
7.01695,19115
7.01957,17645
7.02217,18603
7.02478,18067
7.02738,18076
7.03000,19739
7.03260,19246
7.03520,17973
7.03782,18218
7.04042,17679
7.04303,19657
7.04563,17827
7.04823,18078
7.05085,19633
7.05345,18343
7.05607,19104
7.05867,19172
7.06127,21259
7.06388,16761
7.06648,19145
7.06910,18435
7.07170,17960
7.07430,19866
7.07692,18819
7.07952,19848
7.08213,17070
7.08473,19709
7.08733,18438
7.08995,17033
7.09255,16082
7.09517,17119
7.09777,18498
7.10037,16633
7.10298,16830
7.10558,16726
7.10820,19010
7.11080,16447
7.11342,17507
7.11602,20137
7.11862,18589
7.12123,16386
7.12383,18490
7.12645,17568
7.12905,17109
7.13165,17709
7.13427,17238
7.13687,19345
7.13948,17896
7.14208,18456
7.14468,18174
7.14730,18024
7.14990,18769
7.15252,18832
7.15512,18537
7.15772,18402
7.16033,18298
7.16293,18789
7.16555,16190
7.16815,17300
7.17075,17277
7.17337,17335
7.17597,16192
7.17858,18841
7.18118,17233
7.18378,16736
7.18640,17395
7.18900,18367
7.19162,17497
7.19422,17304
7.19683,17367
7.19943,15746
7.20203,18503
7.20465,16792
7.20725,19570
7.20987,19734
7.21247,21276
7.21507,19367
7.21768,19586
7.22028,21196
7.22290,19839
7.22550,18210
7.22810,19155
7.23072,15927
7.23332,18609
7.23593,19028
7.23853,18449
7.24113,20648
7.24375,19388
7.24635,18485
7.24897,18295
7.25157,18661
7.25417,18014
7.25678,18432
7.25938,19160
7.26200,17968
7.26460,17468
7.26720,17139
7.26982,18220
7.27242,19356
7.27503,16907
7.27763,18487
7.28025,18560
7.28285,19185
7.28545,19155
7.28807,19716
7.29067,18555
7.29328,18073
7.29588,18624
7.29848,18538
7.30110,19191
7.30370,18192
7.30632,18074
7.30892,19345
7.31152,19143
7.31413,17664
7.31673,18715
7.31935,20273
7.32195,18424
7.32455,17645
7.32717,19361
7.32977,17738
7.33238,19176
7.33498,18899
7.33758,17941
7.34020,18120
7.34280,19593
7.34542,18348
7.34802,17716
7.35062,17259
7.35323,17996
7.35583,19078
7.35845,17436
7.36105,19074
7.36367,19370
7.36627,18442
7.36887,20333
7.37148,17806
7.37408,18216
7.37670,19834
7.37930,18844
7.38190,18790
7.38452,19942
7.38712,19057
7.38973,18787
7.39233,18458
7.39493,18574
7.39755,19231
7.40015,20167
7.40277,19266
7.40537,18811
7.40797,19711
7.41058,18521
7.41318,20721
7.41580,18296
7.41840,19250
7.42100,18883
7.42362,19796
7.42622,18197
7.42883,20124
7.43143,21373
7.43403,18157
7.43665,18835
7.43925,21470
7.44187,19116
7.44447,19652
7.44708,19181
7.44968,18996
7.45228,21245
7.45490,18070
7.45750,18848
7.46012,18634
7.46272,19056
7.46532,18813
7.46793,19394
7.47053,20384
7.47315,19564
7.47575,20034
7.47835,17388
7.48097,19274
7.48357,18735
7.48618,18992
7.48878,20245
7.49138,19869
7.49400,20828
7.49660,20703
7.49922,22644
7.50182,20610
7.50442,21920
7.50703,20081
7.50963,18412
7.51225,20364
7.51485,19001
7.51745,21220
7.52007,22099
7.52267,22012
7.52528,23975
7.52788,27296
7.53050,28820
7.53310,25892
7.53570,24788
7.53832,22826
7.54092,21339
7.54353,20849
7.54613,21693
7.54873,20004
7.55135,19018
7.55395,20932
7.55657,22189
7.55917,20285
7.56177,20859
7.56438,22955
7.56698,22478
7.56960,20979
7.57220,20890
7.57480,22497
7.57742,21855
7.58002,24406
7.58263,23224
7.58523,24245
7.58783,24069
7.59045,22657
7.59305,22520
7.59567,20386
7.59827,19691
7.60087,21092
7.60348,20553
7.60608,22821
7.60870,22603
7.61130,20910
7.61392,21907
7.61652,23091
7.61912,20115
7.62173,20012
7.62433,21284
7.62695,21311
7.62955,22205
7.63215,23740
7.63477,21789
7.63737,21354
7.63998,22999
7.64258,21382
7.64518,19321
7.64780,20615
7.65040,21780
7.65302,19857
7.65562,21385
7.65822,22575
7.66083,21215
7.66343,22879
7.66605,23743
7.66865,24137
7.67125,21430
7.67387,22325
7.67647,24848
7.67908,26358
7.68168,25725
7.68428,24509
7.68690,22485
7.68950,23281
7.69212,23626
7.69472,21705
7.69733,23497
7.69993,22252
7.70253,23831
7.70515,23936
7.70775,21511
7.71037,19948
7.71297,23059
7.71557,23898
7.71818,21943
7.72078,22630
7.72340,23436
7.72600,22802
7.72860,22043
7.73122,22052
7.73382,24793
7.73643,21178
7.73903,23714
7.74163,24515
7.74425,22683
7.74685,23801
7.74947,22942
7.75207,23782
7.75467,21251
7.75728,23857
7.75988,22703
7.76250,23262
7.76510,22207
7.76770,23409
7.77032,24381
7.77292,23330
7.77553,24171
7.77813,22134
7.78075,24006
7.78335,22848
7.78595,24148
7.78857,22393
7.79117,22804
7.79378,23055
7.79638,24681
7.79898,24020
7.80160,23056
7.80420,23302
7.80682,23432
7.80942,23173
7.81202,22353
7.81463,24470
7.81723,23668
7.81985,25272
7.82245,26741
7.82505,28721
7.82767,31185
7.83027,31410
7.83288,30060
7.83548,28808
7.83808,28918
7.84070,24970
7.84330,25603
7.84592,25076
7.84852,26551
7.85112,25248
7.85373,24121
7.85633,26285
7.85895,24739
7.86155,24378
7.86417,24485
7.86677,25885
7.86937,26134
7.87198,25907
7.87458,24257
7.87720,25187
7.87980,24717
7.88240,24594
7.88502,23985
7.88762,25360
7.89023,24601
7.89283,25574
7.89543,23879
7.89805,25160
7.90065,25906
7.90327,24702
7.90587,26336
7.90847,28597
7.91108,27242
7.91368,28130
7.91630,26412
7.91890,26685
7.92150,26640
7.92412,26082
7.92672,25224
7.92933,23083
7.93193,27584
7.93453,27125
7.93715,27597
7.93975,28206
7.94237,28480
7.94497,26000
7.94758,26720
7.95018,27130
7.95278,25214
7.95540,26448
7.95800,27739
7.96062,26465
7.96322,26898
7.96582,25488
7.96843,27708
7.97103,27778
7.97365,26461
7.97625,27030
7.97885,27520
7.98147,27058
7.98407,25333
7.98668,24796
7.98928,26632
7.99188,27286
7.99450,27450
7.99710,28926
7.99972,28321
8.00232,27868
8.00492,28197
8.00753,26893
8.01013,25588
8.01275,29009
8.01535,26282
8.01795,27771
8.02057,27480
8.02317,28908
8.02578,27823
8.02838,29163
8.03100,29457
8.03360,29640
8.03620,30293
8.03882,28174
8.04142,26862
8.04403,30906
8.04663,30544
8.04923,30406
8.05185,29967
8.05445,32597
8.05707,55684
8.05967,136540
8.06227,457596
8.06488,1497565
8.06748,3978292
8.07010,8182052
8.07270,1.276398E+07
8.07530,1.639015E+07
8.07792,1.687158E+07
8.08052,1.323419E+07
8.08313,7847418
8.08573,3907000
8.08833,1960420
8.09095,1190423
8.09355,830743
8.09617,628391
8.09877,489669
8.10137,409771
8.10398,335536
8.10658,294338
8.10920,257457
8.11180,236421
8.11442,208348
8.11702,190686
8.11962,169682
8.12223,153422
8.12483,136862
8.12745,135199
8.13005,121201
8.13265,118731
8.13527,106349
8.13787,102883
8.14048,100071
8.14308,90970
8.14568,88776
8.14830,83132
8.15090,78100
8.15352,77860
8.15612,73905
8.15872,77198
8.16133,69750
8.16393,66234
8.16655,63742
8.16915,66471
8.17175,62647
8.17437,64090
8.17697,63798
8.17958,69038
8.18218,72757
8.18478,68991
8.18740,67478
8.19000,61911
8.19262,57759
8.19522,54811
8.19783,51130
8.20043,51910
8.20303,50068
8.20565,51954
8.20825,52338
8.21087,53284
8.21347,49672
8.21607,50815
8.21868,48100
8.22128,50192
8.22390,47099
8.22650,47864
8.22910,46558
8.23172,45164
8.23432,46921
8.23693,46249
8.23953,45413
8.24213,46381
8.24475,41966
8.24735,42610
8.24997,43616
8.25257,42766
8.25517,43667
8.25778,40359
8.26038,40802
8.26300,44731
8.26560,41432
8.26820,41250
8.27082,41386
8.27342,40208
8.27603,43486
8.27863,42309
8.28125,41136
8.28385,41432
8.28645,43074
8.28907,43292
8.29167,42856
8.29428,42108
8.29688,45320
8.29948,44262
8.30210,43072
8.30470,47299
8.30732,44762
8.30992,43022
8.31252,42781
8.31513,42866
8.31773,40863
8.32035,39594
8.32295,41124
8.32555,42058
8.32817,41384
8.33077,40774
8.33338,46560
8.33598,43451
8.33858,42823
8.34120,43863
8.34380,43887
8.34642,42033
8.34902,43682
8.35162,45009
8.35423,43328
8.35683,42931
8.35945,42894
8.36205,43639
8.36467,42948
8.36727,40292
8.36987,43387
8.37248,44744
8.37508,41621
8.37770,45869
8.38030,44741
8.38290,44554
8.38552,47423
8.38812,43326
8.39073,44125
8.39333,45235
8.39593,44240
8.39855,43087
8.40115,45308
8.40377,44859
8.40637,44625
8.40897,45047
8.41158,45203
8.41418,44168
8.41680,46979
8.41940,48758
8.42200,46024
8.42462,44106
8.42722,45637
8.42983,47292
8.43243,50495
8.43503,46914
8.43765,45451
8.44025,46889
8.44287,46784
8.44547,46271
8.44808,46787
8.45068,45260
8.45328,49616
8.45590,46778
8.45850,47304
8.46112,50071
8.46372,50953
8.46632,49603
8.46893,48866
8.47153,51541
8.47415,54510
8.47675,50721
8.47935,54056
8.48197,57678
8.48457,51780
8.48718,52505
8.48978,51701
8.49238,52462
8.49500,52781
8.49760,53088
8.50022,51914
8.50282,55016
8.50542,59222
8.50803,62271
8.51063,65280
8.51325,67664
8.51585,67614
8.51845,62095
8.52107,59972
8.52367,61442
8.52628,54530
8.52888,53325
8.53150,53823
8.53410,55479
8.53670,56410
8.53932,55427
8.54192,55116
8.54453,55306
8.54713,58365
8.54973,57316
8.55235,55839
8.55495,57749
8.55757,58893
8.56017,58190
8.56277,60092
8.56538,57162
8.56798,56771
8.57060,58835
8.57320,59562
8.57580,58025
8.57842,63139
8.58102,59789
8.58363,60665
8.58623,59905
8.58883,61517
8.59145,57908
8.59405,62599
8.59667,61220
8.59927,63498
8.60187,62633
8.60448,64515
8.60708,62631
8.60970,63630
8.61230,64713
8.61492,65195
8.61752,63970
8.62012,62793
8.62273,63800
8.62533,66175
8.62795,63745
8.63055,65696
8.63315,67418
8.63577,68878
8.63837,69659
8.64098,66534
8.64358,66777
8.64618,70072
8.64880,67833
8.65140,64370
8.65402,66829
8.65662,71115
8.65922,66659
8.66183,69125
8.66443,70812
8.66705,69874
8.66965,70279
8.67225,67387
8.67487,76555
8.67747,74248
8.68008,70909
8.68268,72474
8.68528,69225
8.68790,76398
8.69050,72219
8.69312,76261
8.69572,76109
8.69833,76793
8.70093,73403
8.70353,75524
8.70615,78062
8.70875,78070
8.71137,81179
8.71397,85111
8.71657,87062
8.71918,87380
8.72178,88797
8.72440,85741
8.72700,83561
8.72960,85573
8.73222,84168
8.73482,78442
8.73743,85759
8.74003,84495
8.74263,78054
8.74525,81439
8.74785,81610
8.75047,82255
8.75307,82408
8.75567,82655
8.75828,84911
8.76088,84184
8.76350,79814
8.76610,82711
8.76870,82729
8.77132,83243
8.77392,82469
8.77653,87046
8.77913,85657
8.78175,80545
8.78435,87093
8.78695,85985
8.78957,87042
8.79217,90200
8.79478,84906
8.79738,92617
8.79998,84949
8.80260,84689
8.80520,86583
8.80782,86104
8.81042,89148
8.81302,86078
8.81563,89196
8.81823,89241
8.82085,88835
8.82345,89306
8.82605,90932
8.82867,88679
8.83127,89512
8.83388,92259
8.83648,91327
8.83908,93535
8.84170,91912
8.84430,94364
8.84692,87338
8.84952,91646
8.85212,95737
8.85473,90860
8.85733,92391
8.85995,96507
8.86255,91865
8.86517,95861
8.86777,94674
8.87037,94241
8.87298,93639
8.87558,91539
8.87820,92688
8.88080,97479
8.88340,90552
8.88602,97977
8.88862,97819
8.89123,96861
8.89383,93390
8.89643,96944
8.89905,96483
8.90165,98588
8.90427,93104
8.90687,95096
8.90947,95015
8.91208,96799
8.91468,94886
8.91730,98903
8.91990,99093
8.92250,98456
8.92512,99740
8.92772,98377
8.93033,102273
8.93293,97368
8.93553,101525
8.93815,99504
8.94075,100378
8.94337,98610
8.94597,101184
8.94858,97256
8.95118,98799
8.95378,99138
8.95640,98436
8.95900,96921
8.96162,101386
8.96422,99106
8.96682,99701
8.96943,96800
8.97203,98208
8.97465,102939
8.97725,98613
8.97985,102330
8.98247,97895
8.98507,98574
8.98768,108638
8.99028,105101
8.99288,103325
8.99550,104619
8.99810,102564
9.00072,104550
9.00332,104629
9.00592,98736
9.00853,105247
9.01113,101991
9.01375,101332
9.01635,105865
9.01895,108698
9.02157,106750
9.02417,105296
9.02678,107952
9.02938,104778
9.03200,104249
9.03460,103563
9.03720,104003
9.03982,103278
9.04242,104364
9.04503,104093
9.04763,101476
9.05023,107188
9.05285,104119
9.05545,104697
9.05807,101145
9.06067,106953
9.06327,106415
9.06588,103684
9.06848,107917
9.07110,106309
9.07370,109895
9.07630,107945
9.07892,104405
9.08152,111221
9.08413,106067
9.08673,104351
9.08933,99953
9.09195,105810
9.09455,105644
9.09717,107584
9.09977,104748
9.10237,100072
9.10498,105027
9.10758,106969
9.11020,100582
9.11280,104767
9.11542,105810
9.11802,108648
9.12062,107483
9.12323,108504
9.12583,110531
9.12845,111837
9.13105,110324
9.13365,110828
9.13627,107551
9.13887,108972
9.14148,106522
9.14408,107499
9.14668,106518
9.14930,103652
9.15190,106887
9.15452,107992
9.15712,106510
9.15972,102978
9.16233,105824
9.16493,108397
9.16755,107437
9.17015,106336
9.17275,107690
9.17537,107531
9.17797,107095
9.18058,108546
9.18318,107896
9.18578,108619
9.18840,109251
9.19100,109366
9.19362,111971
9.19622,105455
9.19883,110600
9.20143,113245
9.20403,111524
9.20665,114455
9.20925,109345
9.21187,109924
9.21447,108930
9.21707,105834
9.21968,105298
9.22228,107964
9.22490,109040
9.22750,111966
9.23010,107966
9.23272,104897
9.23532,106741
9.23793,104958
9.24053,110485
9.24313,105870
9.24575,104555
9.24835,105752
9.25097,105426
9.25357,110017
9.25617,106257
9.25878,108124
9.26138,106373
9.26400,104815
9.26660,106178
9.26920,101147
9.27182,105004
9.27442,109854
9.27703,109268
9.27963,108637
9.28225,107777
9.28485,109632
9.28745,108309
9.29007,111228
9.29267,105147
9.29528,109318
9.29788,106861
9.30048,105434
9.30310,106155
9.30570,106049
9.30832,105586
9.31092,108694
9.31352,104632
9.31613,107959
9.31873,102931
9.32135,106242
9.32395,106954
9.32655,106563
9.32917,103499
9.33177,106060
9.33438,104655
9.33698,102031
9.33958,106073
9.34220,103634
9.34480,110160
9.34742,106373
9.35002,107634
9.35262,104795
9.35523,102534
9.35783,104044
9.36045,107382
9.36305,109264
9.36567,109275
9.36827,108270
9.37087,107112
9.37348,110304
9.37608,111701
9.37870,107447
9.38130,109990
9.38390,104129
9.38652,107278
9.38912,99479
9.39173,104459
9.39433,106066
9.39693,106247
9.39955,105392
9.40215,105217
9.40477,103604
9.40737,105536
9.40997,104372
9.41258,110540
9.41518,109460
9.41780,104275
9.42040,105015
9.42300,106082
9.42562,103447
9.42822,104223
9.43083,109382
9.43343,108384
9.43603,105740
9.43865,103648
9.44125,102725
9.44387,103398
9.44647,107494
9.44908,102912
9.45168,108932
9.45428,107388
9.45690,109591
9.45950,104979
9.46212,105213
9.46472,109286
9.46732,110643
9.46993,106959
9.47253,106433
9.47515,107694
9.47775,107813
9.48035,109343
9.48297,106348
9.48557,103988
9.48818,104190
9.49078,105740
9.49338,111066
9.49600,105366
9.49860,107304
9.50122,105874
9.50382,104899
9.50642,110786
9.50903,107703
9.51163,106864
9.51425,110197
9.51685,109710
9.51945,104293
9.52207,103183
9.52467,108240
9.52728,103464
9.52988,109612
9.53250,109184
9.53510,109595
9.53770,108078
9.54032,102993
9.54292,106666
9.54553,106479
9.54813,104284
9.55073,105319
9.55335,103020
9.55595,106546
9.55857,106273
9.56117,108668
9.56377,107650
9.56638,106069
9.56898,105930
9.57160,105761
9.57420,109914
9.57680,105895
9.57942,103896
9.58202,108290
9.58463,107663
9.58723,110448
9.58983,105486
9.59245,106799
9.59505,107397
9.59767,108556
9.60027,103408
9.60287,107694
9.60548,106133
9.60808,106828
9.61070,104754
9.61330,107049
9.61592,108105
9.61852,107965
9.62112,103662
9.62373,109920
9.62633,108016
9.62895,110214
9.63155,102574
9.63415,109632
9.63677,106340
9.63937,106058
9.64198,107428
9.64458,108586
9.64718,106459
9.64980,106591
9.65240,108904
9.65502,111809
9.65762,109342
9.66022,108929
9.66283,104542
9.66543,108876
9.66805,111363
9.67065,103758
9.67325,106920
9.67587,107462
9.67847,109904
9.68108,106977
9.68368,106964
9.68628,110216
9.68890,106785
9.69150,108285
9.69412,107253
9.69672,107593
9.69933,105304
9.70193,104255
9.70453,105158
9.70715,107206
9.70975,108409
9.71237,105072
9.71497,107890
9.71757,102825
9.72018,109416
9.72278,105410
9.72540,108388
9.72800,105893
9.73060,107839
9.73322,105710
9.73582,105688
9.73843,103236
9.74103,111190
9.74363,106207
9.74625,110603
9.74885,108025
9.75147,106448
9.75407,105976
9.75667,107583
9.75928,108933
9.76188,104094
9.76450,107565
9.76710,109342
9.76970,110030
9.77232,107141
9.77492,108331
9.77753,107177
9.78013,106887
9.78275,110522
9.78535,107910
9.78795,103950
9.79057,109190
9.79317,108203
9.79578,110951
9.79838,108185
9.80098,108310
9.80360,109621
9.80620,107843
9.80882,110536
9.81142,105045
9.81402,111310
9.81663,104964
9.81923,109654
9.82185,108854
9.82445,107157
9.82705,111128
9.82967,105575
9.83227,107398
9.83488,107595
9.83748,106870
9.84008,106743
9.84270,106438
9.84530,109900
9.84792,105379
9.85052,109356
9.85312,104951
9.85573,110723
9.85833,111462
9.86095,107066
9.86355,112552
9.86617,109367
9.86877,105304
9.87137,109341
9.87398,107112
9.87658,109069
9.87920,106806
9.88180,105930
9.88440,111701
9.88702,108822
9.88962,100690
9.89223,109489
9.89483,110248
9.89743,107246
9.90005,108361
9.90265,103745
9.90527,108342
9.90787,104575
9.91047,108521
9.91308,106594
9.91568,107898
9.91830,109927
9.92090,110444
9.92350,106277
9.92612,107531
9.92872,107104
9.93133,108687
9.93393,103670
9.93653,107163
9.93915,107049
9.94175,108938
9.94437,107671
9.94697,106654
9.94958,111080
9.95218,107602
9.95478,108691
9.95740,106618
9.96000,104367
9.96262,110327
9.96522,107724
9.96782,108105
9.97043,105518
9.97303,110422
9.97565,109628
9.97825,111167
9.98085,108343
9.98347,108334
9.98607,109704
9.98868,107209
9.99128,108040
9.99388,107981
9.99650,110791
9.99910,109402
10.00172,106073
10.00432,110980
10.00692,108457
10.00953,108100
10.01213,107241
10.01475,110429
10.01735,107356
10.01995,110464
10.02257,108089
10.02517,107745
10.02778,109582
10.03038,105632
10.03300,110745
10.03560,107915
10.03820,108500
10.04082,104777
10.04342,110806
10.04603,109250
10.04863,108034
10.05123,104997
10.05385,106241
10.05645,105254
10.05907,105884
10.06167,109677
10.06427,110863
10.06688,110209
10.06948,110451
10.07210,108112
10.07470,108475
10.07730,110195
10.07992,107205
10.08252,111390
10.08513,109525
10.08773,105846
10.09033,109162
10.09295,107824
10.09555,109991
10.09817,108737
10.10077,112007
10.10337,110872
10.10598,103846
10.10858,110846
10.11120,109134
10.11380,109780
10.11642,109114
10.11902,106708
10.12162,106025
10.12423,108247
10.12683,106851
10.12945,103815
10.13205,107345
10.13465,106936
10.13727,109678
10.13987,112091
10.14248,108264
10.14508,111247
10.14768,109962
10.15030,109098
10.15290,106096
10.15552,111486
10.15812,111921
10.16072,109690
10.16333,110485
10.16593,108802
10.16855,105683
10.17115,110542
10.17375,106286
10.17637,106735
10.17897,105452
10.18158,106796
10.18418,103718
10.18678,103011
10.18940,107283
10.19200,105272
10.19462,112241
10.19722,108735
10.19983,106479
10.20243,110767
10.20503,108137
10.20765,106243
10.21025,113506
10.21287,110840
10.21547,113409
10.21807,108862
10.22068,110457
10.22328,106778
10.22590,108526
10.22850,112378
10.23110,109733
10.23372,105408
10.23632,108359
10.23893,109581
10.24153,107929
10.24413,106903
10.24675,106554
10.24935,110182
10.25197,107395
10.25457,105572
10.25717,108601
10.25978,105437
10.26238,101491
10.26500,103570
10.26760,111857
10.27020,107900
10.27282,107224
10.27542,109232
10.27803,110110
10.28063,109343
10.28325,111077
10.28585,111626
10.28845,107762
10.29107,105310
10.29367,107438
10.29628,106294
10.29888,112498
10.30148,104995
10.30410,108458
10.30670,109997
10.30932,103432
10.31192,106717
10.31452,105323
10.31713,106724
10.31973,102912
10.32235,108554
10.32495,109663
10.32755,106586
10.33017,108625
10.33277,105347
10.33538,107214
10.33798,106826
10.34058,106945
10.34320,106352
10.34580,108846
10.34842,108190
10.35102,114944
10.35362,107458
10.35623,110002
10.35883,111148
10.36145,109988
10.36405,106465
10.36667,111247
10.36927,105614
10.37187,110918
10.37448,112234
10.37708,108337
10.37970,106862
10.38230,111231
10.38490,107490
10.38752,109023
10.39012,108512
10.39273,112915
10.39533,108864
10.39793,107974
10.40055,108673
10.40315,108756
10.40577,110277
10.40837,106810
10.41097,112468
10.41358,108240
10.41618,109722
10.41880,111430
10.42140,109936
10.42400,112398
10.42662,105355
10.42922,106552
10.43183,109179
10.43443,107496
10.43703,109309
10.43965,109635
10.44225,111581
10.44487,110487
10.44747,109170
10.45008,112454
10.45268,110214
10.45528,108133
10.45790,109098
10.46050,111114
10.46312,110257
10.46572,109537
10.46832,110672
10.47093,109988
10.47353,114569
10.47615,108103
10.47875,112071
10.48135,108067
10.48397,110536
10.48657,108872
10.48918,109432
10.49178,106566
10.49438,108778
10.49700,111979
10.49960,111784
10.50222,110143
10.50482,109400
10.50742,113265
10.51003,110799
10.51263,107410
10.51525,113384
10.51785,107737
10.52045,109163
10.52307,108061
10.52567,109805
10.52828,111030
10.53088,112142
10.53350,109219
10.53610,108112
10.53870,113572
10.54132,110412
10.54392,108245
10.54653,110932
10.54913,111816
10.55173,110259
10.55435,106961
10.55695,108193
10.55957,107078
10.56217,107879
10.56477,107984
10.56738,111811
10.56998,109532
10.57260,107506
10.57520,104192
10.57780,107387
10.58042,106048
10.58302,104915
10.58563,107301
10.58823,107547
10.59083,108084
10.59345,110874
10.59605,104848
10.59867,106432
10.60127,109452
10.60387,104682
10.60648,109702
10.60908,107058
10.61170,107470
10.61430,109888
10.61692,111171
10.61952,110264
10.62212,110438
10.62473,108858
10.62733,105553
10.62995,111858
10.63255,108985
10.63515,111389
10.63777,105187
10.64037,110414
10.64298,113825
10.64558,110622
10.64818,103309
10.65080,105792
10.65340,109251
10.65602,106057
10.65862,108631
10.66122,107379
10.66383,110069
