D:\data\overige2021\rk\20200201rk_cocacase28x\B039719.D Mon Feb 01 20:01:18 2021
Start of data points
1.58972,12838
1.59232,11767
1.59492,12114
1.59753,11661
1.60013,11846
1.60275,11730
1.60535,10139
1.60795,10744
1.61057,12877
1.61317,10078
1.61578,11562
1.61838,11525
1.62100,11586
1.62360,12211
1.62620,11527
1.62882,11651
1.63142,11382
1.63403,11778
1.63663,10735
1.63923,11078
1.64185,9441
1.64445,11143
1.64707,8593
1.64967,11468
1.65227,9203
1.65488,10447
1.65748,10016
1.66010,10630
1.66270,10493
1.66530,10853
1.66792,10326
1.67052,11068
1.67313,9250
1.67573,10333
1.67833,10694
1.68095,9150
1.68355,9440
1.68617,10163
1.68877,10053
1.69137,9968
1.69398,9089
1.69658,10017
1.69920,10166
1.70180,10695
1.70442,10849
1.70702,11267
1.70962,10662
1.71223,9740
1.71483,10421
1.71745,10048
1.72005,9602
1.72265,8761
1.72527,8601
1.72787,9460
1.73048,8553
1.73308,7857
1.73568,8875
1.73830,8680
1.74090,9014
1.74352,8152
1.74612,8300
1.74872,10031
1.75133,7626
1.75393,8560
1.75655,8625
1.75915,9072
1.76175,8583
1.76437,8645
1.76697,8330
1.76958,8909
1.77218,7264
1.77478,8860
1.77740,7532
1.78000,9259
1.78262,7191
1.78522,7969
1.78783,7919
1.79043,7162
1.79303,8723
1.79565,7779
1.79825,8027
1.80087,8292
1.80347,7026
1.80607,9951
1.80868,8119
1.81128,10273
1.81390,6038
1.81650,7798
1.81910,8965
1.82172,6364
1.82432,6552
1.82693,8135
1.82953,7078
1.83213,7597
1.83475,6968
1.83735,7693
1.83997,5949
1.84257,7105
1.84517,7527
1.84778,7350
1.85038,6606
1.85300,6989
1.85560,6670
1.85820,5865
1.86082,7229
1.86342,7238
1.86603,6098
1.86863,6973
1.87125,7310
1.87385,5536
1.87645,8073
1.87907,5354
1.88167,7174
1.88428,6703
1.88688,6281
1.88948,7061
1.89210,5736
1.89470,6981
1.89732,6762
1.89992,7012
1.90252,6729
1.90513,6694
1.90773,7657
1.91035,7586
1.91295,5283
1.91555,6631
1.91817,6180
1.92077,5344
1.92338,5558
1.92598,5868
1.92858,7010
1.93120,6290
1.93380,5192
1.93642,5762
1.93902,6475
1.94162,5543
1.94423,7364
1.94683,6000
1.94945,7169
1.95205,6769
1.95467,6737
1.95727,5468
1.95987,6603
1.96248,5670
1.96508,5862
1.96770,6428
1.97030,5602
1.97290,6215
1.97552,5822
1.97812,5367
1.98073,6934
1.98333,6797
1.98593,6803
1.98855,5347
1.99115,6706
1.99377,6388
1.99637,6089
1.99897,6002
2.00158,5988
2.00418,5926
2.00680,5425
2.00940,5538
2.01200,5558
2.01462,6434
2.01722,5953
2.01983,6107
2.02243,5049
2.02503,5418
2.02765,6553
2.03025,4538
2.03287,6290
2.03547,6793
2.03808,6137
2.04068,8130
2.04328,8851
2.04590,10823
2.04850,10175
2.05112,9626
2.05372,8541
2.05632,8700
2.05893,8765
2.06153,7144
2.06415,6678
2.06675,7876
2.06935,7137
2.07197,7981
2.07457,5786
2.07718,6350
2.07978,7112
2.08238,7799
2.08500,6055
2.08760,5563
2.09022,6842
2.09282,6298
2.09542,4973
2.09803,5898
2.10063,5470
2.10325,5383
2.10585,6056
2.10845,5262
2.11107,6271
2.11367,6300
2.11628,5474
2.11888,5389
2.12150,6079
2.12410,5448
2.12670,5776
2.12932,6756
2.13192,6894
2.13453,6128
2.13713,6131
2.13973,6111
2.14235,5353
2.14495,6434
2.14757,5107
2.15017,5764
2.15277,4800
2.15538,5811
2.15798,4813
2.16060,5157
2.16320,5948
2.16580,5101
2.16842,6500
2.17102,6310
2.17363,4832
2.17623,5040
2.17883,5550
2.18145,5867
2.18405,4721
2.18667,5111
2.18927,4830
2.19187,7375
2.19448,6353
2.19708,7647
2.19970,7962
2.20230,8782
2.20492,9124
2.20752,7000
2.21012,6962
2.21273,6744
2.21533,4408
2.21795,5672
2.22055,6113
2.22315,5527
2.22577,5577
2.22837,4286
2.23098,4926
2.23358,6445
2.23618,6344
2.23880,5468
2.24140,4875
2.24402,3112
2.24662,5388
2.24922,6126
2.25183,5222
2.25443,5019
2.25705,5667
2.25965,5709
2.26225,4527
2.26487,4580
2.26747,5500
2.27008,5070
2.27268,4852
2.27528,6444
2.27790,5087
2.28050,5205
2.28312,5108
2.28572,5945
2.28833,5180
2.29093,5658
2.29353,5007
2.29615,5200
2.29875,5365
2.30137,5345
2.30397,4763
2.30657,4475
2.30918,5519
2.31178,5940
2.31440,5182
2.31700,5573
2.31960,5267
2.32222,5553
2.32482,4260
2.32743,4958
2.33003,4829
2.33263,4431
2.33525,4949
2.33785,5731
2.34047,6251
2.34307,5824
2.34567,4535
2.34828,4412
2.35088,4474
2.35350,4967
2.35610,4927
2.35870,4270
2.36132,6646
2.36392,5376
2.36653,5102
2.36913,4178
2.37175,5786
2.37435,5935
2.37695,5839
2.37957,4737
2.38217,6146
2.38478,5041
2.38738,5077
2.38998,5090
2.39260,4454
2.39520,4439
2.39782,4850
2.40042,4175
2.40302,4280
2.40563,4940
2.40823,4615
2.41085,5418
2.41345,5153
2.41605,4921
2.41867,5431
2.42127,5295
2.42388,4334
2.42648,4326
2.42908,5111
2.43170,5233
2.43430,5168
2.43692,4224
2.43952,3999
2.44212,4832
2.44473,4721
2.44733,4841
2.44995,5574
2.45255,5782
2.45517,6626
2.45777,7660
2.46037,9058
2.46298,8590
2.46558,8573
2.46820,6825
2.47080,6914
2.47340,7121
2.47602,7409
2.47862,7431
2.48123,6979
2.48383,5765
2.48643,6494
2.48905,6499
2.49165,7166
2.49427,8299
2.49687,6636
2.49947,6164
2.50208,5604
2.50468,5698
2.50730,5888
2.50990,5070
2.51250,5472
2.51512,4594
2.51772,4988
2.52033,5911
2.52293,5717
2.52553,5482
2.52815,4648
2.53075,5891
2.53337,5066
2.53597,5711
2.53858,5798
2.54118,6196
2.54378,4892
2.54640,5453
2.54900,6128
2.55162,3880
2.55422,4647
2.55682,5936
2.55943,3942
2.56203,4478
2.56465,5507
2.56725,5464
2.56985,5509
2.57247,3553
2.57507,4641
2.57768,5525
2.58028,4925
2.58288,4091
2.58550,4842
2.58810,4682
2.59072,4994
2.59332,5654
2.59592,5628
2.59853,4398
2.60113,5539
2.60375,4778
2.60635,4439
2.60895,3169
2.61157,5401
2.61417,5229
2.61678,5070
2.61938,5055
2.62200,3730
2.62460,4118
2.62720,4996
2.62982,4433
2.63242,4123
2.63503,4476
2.63763,4903
2.64023,5527
2.64285,5243
2.64545,5953
2.64807,4430
2.65067,4895
2.65327,4354
2.65588,4831
2.65848,5254
2.66110,5448
2.66370,5052
2.66630,5551
2.66892,4913
2.67152,5412
2.67413,5209
2.67673,4202
2.67933,5098
2.68195,4464
2.68455,4655
2.68717,5224
2.68977,5796
2.69237,4658
2.69498,4942
2.69758,5789
2.70020,4714
2.70280,5202
2.70542,6829
2.70802,4771
2.71062,6193
2.71323,5291
2.71583,5649
2.71845,4908
2.72105,4719
2.72365,4914
2.72627,4204
2.72887,4653
2.73148,4449
2.73408,5012
2.73668,4967
2.73930,4921
2.74190,5452
2.74452,5073
2.74712,5761
2.74972,4909
2.75233,4824
2.75493,4961
2.75755,4070
2.76015,3802
2.76275,5731
2.76537,5080
2.76797,4902
2.77058,5170
2.77318,4784
2.77578,4902
2.77840,6069
2.78100,4862
2.78362,4383
2.78622,4700
2.78883,4889
2.79143,5635
2.79403,5536
2.79665,5479
2.79925,4208
2.80187,3756
2.80447,4238
2.80707,5657
2.80968,4848
2.81228,4003
2.81490,4159
2.81750,3864
2.82010,3764
2.82272,4808
2.82532,5466
2.82793,5999
2.83053,4708
2.83313,5440
2.83575,4576
2.83835,5133
2.84097,5070
2.84357,4049
2.84617,5283
2.84878,5076
2.85138,4043
2.85400,5817
2.85660,5216
2.85920,5293
2.86182,4604
2.86442,5124
2.86703,4812
2.86963,5486
2.87225,3902
2.87485,4582
2.87745,5455
2.88007,5873
2.88267,3491
2.88528,4878
2.88788,4708
2.89048,4402
2.89310,5251
2.89570,5419
2.89832,4723
2.90092,5497
2.90352,4762
2.90613,4889
2.90873,5760
2.91135,4806
2.91395,4405
2.91655,4912
2.91917,4873
2.92177,3571
2.92438,3834
2.92698,5292
2.92958,4664
2.93220,5104
2.93480,4558
2.93742,5974
2.94002,5628
2.94262,4679
2.94523,3954
2.94783,4935
2.95045,5278
2.95305,4692
2.95567,4358
2.95827,4683
2.96087,3580
2.96348,4820
2.96608,4443
2.96870,5385
2.97130,5374
2.97390,5963
2.97652,6502
2.97912,6505
2.98173,5890
2.98433,4842
2.98693,5012
2.98955,5491
2.99215,5426
2.99477,4846
2.99737,5314
2.99997,4503
3.00258,4841
3.00518,4218
3.00780,4442
3.01040,4691
3.01300,4310
3.01562,5006
3.01822,5999
3.02083,5068
3.02343,3839
3.02603,5007
3.02865,4423
3.03125,4294
3.03387,4639
3.03647,4782
3.03908,5274
3.04168,4141
3.04428,4944
3.04690,4284
3.04950,4420
3.05212,5135
3.05472,4326
3.05732,5425
3.05993,4573
3.06253,3678
3.06515,5064
3.06775,4622
3.07035,5426
3.07297,4977
3.07557,5207
3.07818,4628
3.08078,4410
3.08338,4514
3.08600,5011
3.08860,3751
3.09122,3799
3.09382,3706
3.09642,4913
3.09903,4162
3.10163,6210
3.10425,4442
3.10685,5227
3.10945,5389
3.11207,4906
3.11467,5723
3.11728,9029
3.11988,11172
3.12250,12679
3.12510,18299
3.12770,22296
3.13032,20067
3.13292,21729
3.13553,19485
3.13813,16788
3.14073,14981
3.14335,15504
3.14595,14311
3.14857,12905
3.15117,10215
3.15377,12700
3.15638,11753
3.15898,10189
3.16160,10616
3.16420,7899
3.16680,8744
3.16942,8315
3.17202,10659
3.17463,9184
3.17723,7671
3.17983,9404
3.18245,9124
3.18505,7817
3.18767,8008
3.19027,7253
3.19287,7170
3.19548,7229
3.19808,7286
3.20070,5990
3.20330,7480
3.20592,7850
3.20852,6384
3.21112,6175
3.21373,6670
3.21633,6666
3.21895,5706
3.22155,6911
3.22415,7612
3.22677,6774
3.22937,5979
3.23198,6322
3.23458,7586
3.23718,6149
3.23980,7140
3.24240,5922
3.24502,5995
3.24762,7087
3.25022,6393
3.25283,6839
3.25543,5006
3.25805,7069
3.26065,5710
3.26325,4901
3.26587,6290
3.26847,5526
3.27108,6032
3.27368,5456
3.27628,6229
3.27890,5848
3.28150,5216
3.28412,5949
3.28672,5563
3.28933,6540
3.29193,7384
3.29453,6725
3.29715,5034
3.29975,5360
3.30237,6475
3.30497,5823
3.30757,5694
3.31018,5734
3.31278,5108
3.31540,6017
3.31800,5443
3.32060,6023
3.32322,6491
3.32582,5814
3.32843,6772
3.33103,5734
3.33363,6163
3.33625,5685
3.33885,5214
3.34147,5667
3.34407,5174
3.34667,5423
3.34928,5498
3.35188,5048
3.35450,6119
3.35710,6373
3.35970,5422
3.36232,5020
3.36492,5162
3.36753,4659
3.37013,5231
3.37275,5082
3.37535,4278
3.37795,6568
3.38057,5822
3.38317,5097
3.38578,5511
3.38838,4942
3.39098,5317
3.39360,6668
3.39620,7138
3.39882,7430
3.40142,7995
3.40402,6974
3.40663,6807
3.40923,7943
3.41185,7158
3.41445,6303
3.41705,6629
3.41967,5836
3.42227,6596
3.42488,6579
3.42748,5685
3.43008,7932
3.43270,6276
3.43530,6452
3.43792,7391
3.44052,6092
3.44312,5125
3.44573,4366
3.44833,4875
3.45095,5739
3.45355,5795
3.45617,5627
3.45877,6509
3.46137,5012
3.46398,4225
3.46658,5243
3.46920,6501
3.47180,5965
3.47440,5455
3.47702,4754
3.47962,6448
3.48223,5475
3.48483,6051
3.48743,4896
3.49005,6240
3.49265,5099
3.49527,6066
3.49787,5852
3.50047,5725
3.50308,5096
3.50568,5811
3.50830,6905
3.51090,9265
3.51350,18340
3.51612,29059
3.51872,42830
3.52133,51236
3.52393,48780
3.52653,40472
3.52915,32211
3.53175,25341
3.53437,19004
3.53697,17525
3.53958,15518
3.54218,13281
3.54478,13760
3.54740,11556
3.55000,11967
3.55262,11306
3.55522,10659
3.55782,10254
3.56043,13082
3.56303,11476
3.56565,10479
3.56825,9885
3.57085,11547
3.57347,10268
3.57607,9075
3.57868,11219
3.58128,10897
3.58388,9996
3.58650,11713
3.58910,10844
3.59172,9414
3.59432,9870
3.59692,12390
3.59953,11636
3.60213,10954
3.60475,10089
3.60735,10856
3.60995,10953
3.61257,11018
3.61517,12081
3.61778,11228
3.62038,10429
3.62300,10753
3.62560,11527
3.62820,8867
3.63082,9788
3.63342,9366
3.63603,11776
3.63863,11684
3.64123,12110
3.64385,14224
3.64645,12724
3.64907,12797
3.65167,12545
3.65427,10604
3.65688,11519
3.65948,10598
3.66210,9143
3.66470,10097
3.66730,10014
3.66992,11483
3.67252,10679
3.67513,8981
3.67773,10276
3.68033,10976
3.68295,9566
3.68555,8756
3.68817,10234
3.69077,9272
3.69337,8663
3.69598,9872
3.69858,9334
3.70120,9267
3.70380,10123
3.70642,9614
3.70902,10190
3.71162,9999
3.71423,10535
3.71683,8322
3.71945,10029
3.72205,9994
3.72465,10209
3.72727,8434
3.72987,10322
3.73248,10196
3.73508,9732
3.73768,10953
3.74030,11241
3.74290,9932
3.74552,9009
3.74812,10721
3.75072,10939
3.75333,8879
3.75593,9268
3.75855,10391
3.76115,8869
3.76375,8878
3.76637,7468
3.76897,9082
3.77158,9920
3.77418,8852
3.77678,10159
3.77940,8311
3.78200,9105
3.78462,11071
3.78722,9581
3.78983,9534
3.79243,8538
3.79503,7802
3.79765,9151
3.80025,9919
3.80287,9283
3.80547,8995
3.80807,9944
3.81068,9482
3.81328,10011
3.81590,8190
3.81850,10384
3.82110,8943
3.82372,10300
3.82632,12446
3.82893,10469
3.83153,9302
3.83413,10040
3.83675,9126
3.83935,8860
3.84197,9006
3.84457,9090
3.84717,9925
3.84978,7530
3.85238,8265
3.85500,7865
3.85760,8256
3.86020,8255
3.86282,8693
3.86542,8693
3.86803,7528
3.87063,8963
3.87325,9285
3.87585,10250
3.87845,11508
3.88107,8650
3.88367,8578
3.88628,9423
3.88888,8901
3.89148,8344
3.89410,9038
3.89670,8944
3.89932,8962
3.90192,9136
3.90452,7882
3.90713,9293
3.90973,8594
3.91235,9938
3.91495,9086
3.91755,9191
3.92017,9974
3.92277,8825
3.92538,9237
3.92798,10681
3.93058,12019
3.93320,12783
3.93580,16520
3.93842,19814
3.94102,19899
3.94362,18430
3.94623,16482
3.94883,15246
3.95145,13155
3.95405,13831
3.95667,10242
3.95927,11697
3.96187,10363
3.96448,9949
3.96708,12045
3.96970,10085
3.97230,10886
3.97490,10226
3.97752,9251
3.98012,12415
3.98273,9484
3.98533,8841
3.98793,8977
3.99055,9093
3.99315,9293
3.99577,9745
3.99837,8550
4.00097,10462
4.00358,9289
4.00618,8108
4.00880,8655
4.01140,10534
4.01400,9465
4.01662,8573
4.01922,9275
4.02183,8450
4.02443,8426
4.02703,9064
4.02965,9363
4.03225,9409
4.03487,8585
4.03747,10432
4.04008,9877
4.04268,9561
4.04528,10003
4.04790,9411
4.05050,9620
4.05312,10253
4.05572,9009
4.05832,9411
4.06093,10424
4.06353,8864
4.06615,9716
4.06875,9111
4.07135,11195
4.07397,9388
4.07657,9079
4.07918,9789
4.08178,8800
4.08438,10287
4.08700,9427
4.08960,9010
4.09222,8534
4.09482,11067
4.09742,10947
4.10003,9523
4.10263,9761
4.10525,9383
4.10785,7889
4.11045,7969
4.11307,9576
4.11567,7882
4.11828,10613
4.12088,9792
4.12350,8830
4.12610,9745
4.12870,9158
4.13132,9224
4.13392,9559
4.13653,9932
4.13913,8829
4.14173,8443
4.14435,8300
4.14695,9655
4.14957,10148
4.15217,8534
4.15477,10213
4.15738,8329
4.15998,8042
4.16260,8782
4.16520,9358
4.16780,9474
4.17042,8306
4.17302,7336
4.17563,8534
4.17823,9796
4.18083,9304
4.18345,10220
4.18605,9379
4.18867,7939
4.19127,9474
4.19387,7571
4.19648,8826
4.19908,8212
4.20170,10553
4.20430,8883
4.20692,8802
4.20952,9555
4.21212,10232
4.21473,9740
4.21733,7382
4.21995,9908
4.22255,9301
4.22515,8630
4.22777,10599
4.23037,9011
4.23298,7995
4.23558,7690
4.23818,9518
4.24080,8023
4.24340,8199
4.24602,8308
4.24862,9934
4.25122,8984
4.25383,7714
4.25643,9132
4.25905,8084
4.26165,8527
4.26425,9834
4.26687,9148
4.26947,9912
4.27208,9218
4.27468,8356
4.27728,8935
4.27990,9720
4.28250,9357
4.28512,7706
4.28772,9539
4.29033,8158
4.29293,8902
4.29553,10101
4.29815,9442
4.30075,9844
4.30337,8132
4.30597,8248
4.30857,7422
4.31118,7394
4.31378,9408
4.31640,10211
4.31900,9970
4.32160,11246
4.32422,11457
4.32682,11252
4.32943,10841
4.33203,11282
4.33463,10792
4.33725,9499
4.33985,9452
4.34247,10230
4.34507,10107
4.34767,9651
4.35028,9567
4.35288,10413
4.35550,9411
4.35810,8956
4.36070,10055
4.36332,9381
4.36592,9808
4.36853,8376
4.37113,8054
4.37375,8957
4.37635,8553
4.37895,8527
4.38157,7598
4.38417,8495
4.38678,8410
4.38938,9140
4.39198,9383
4.39460,8172
4.39720,8935
4.39982,9249
4.40242,9287
4.40502,9477
4.40763,9844
4.41023,10678
4.41285,8313
4.41545,9892
4.41805,9760
4.42067,9047
4.42327,8882
4.42588,9773
4.42848,9568
4.43108,9326
4.43370,10952
4.43630,8543
4.43892,7976
4.44152,8439
4.44412,9035
4.44673,10846
4.44933,8011
4.45195,8914
4.45455,9555
4.45717,8107
4.45977,9602
4.46237,10108
4.46498,8267
4.46758,7528
4.47020,9378
4.47280,9098
4.47540,8024
4.47802,8054
4.48062,8132
4.48323,8664
4.48583,8938
4.48843,8064
4.49105,8649
4.49365,8692
4.49627,9039
4.49887,7333
4.50147,9376
4.50408,8615
4.50668,10294
4.50930,9624
4.51190,9034
4.51450,8534
4.51712,9010
4.51972,9234
4.52233,10028
4.52493,10017
4.52753,8048
4.53015,7408
4.53275,9110
4.53537,9038
4.53797,8844
4.54058,8584
4.54318,9901
4.54578,9017
4.54840,8480
4.55100,8348
4.55362,8406
4.55622,9352
4.55882,10082
4.56143,9988
4.56403,8330
4.56665,9001
4.56925,8651
4.57185,8525
4.57447,8235
4.57707,7816
4.57968,9990
4.58228,8938
4.58488,9368
4.58750,9228
4.59010,9180
4.59272,8027
4.59532,8976
4.59792,8670
4.60053,9867
4.60313,8202
4.60575,7220
4.60835,8452
4.61095,9496
4.61357,8088
4.61617,8602
4.61878,9322
4.62138,8758
4.62400,10458
4.62660,10130
4.62920,8950
4.63182,9090
4.63442,8996
4.63703,9212
4.63963,8866
4.64223,9063
4.64485,9794
4.64745,10563
4.65007,9221
4.65267,9567
4.65527,9188
4.65788,9874
4.66048,7973
4.66310,8796
4.66570,9243
4.66830,10047
4.67092,9540
4.67352,8807
4.67613,9712
4.67873,9178
4.68133,9395
4.68395,11049
4.68655,8814
4.68917,9570
4.69177,7615
4.69437,9273
4.69698,8154
4.69958,8256
4.70220,8571
4.70480,7830
4.70742,8433
4.71002,9085
4.71262,8399
4.71523,9789
4.71783,9055
4.72045,7804
4.72305,9173
4.72565,8016
4.72827,7944
4.73087,9332
4.73348,8222
4.73608,7838
4.73868,8336
4.74130,8626
4.74390,8856
4.74652,8975
4.74912,9168
4.75172,9413
4.75433,10126
4.75693,10443
4.75955,9986
4.76215,9326
4.76475,8428
4.76737,8921
4.76997,7505
4.77258,9817
4.77518,9620
4.77778,12359
4.78040,29937
4.78300,99575
4.78562,270276
4.78822,672321
4.79083,1426660
4.79343,2694918
4.79603,4047188
4.79865,5575364
4.80125,7261672
4.80387,8947301
4.80647,1.048844E+07
4.80907,1.190106E+07
4.81168,1.185221E+07
4.81428,7687685
4.81690,2517531
4.81950,772470
4.82210,378586
4.82472,257480
4.82732,204419
4.82993,167313
4.83253,138575
4.83513,120610
4.83775,110297
4.84035,100026
4.84297,89779
4.84557,84641
4.84817,77543
4.85078,71436
4.85338,67600
4.85600,64375
4.85860,57822
4.86120,55637
4.86382,58316
4.86642,50774
4.86903,47005
4.87163,49553
4.87425,45863
4.87685,40467
4.87945,41752
4.88207,37752
4.88467,38354
4.88728,36345
4.88988,34850
4.89248,34367
4.89510,33960
4.89770,34057
4.90032,30764
4.90292,31004
4.90552,31808
4.90813,30853
4.91073,29923
4.91335,28484
4.91595,30138
4.91855,27906
4.92117,26296
4.92377,26993
4.92638,25552
4.92898,24467
4.93158,24664
4.93420,25222
4.93680,22364
4.93942,24126
4.94202,22859
4.94462,24251
4.94723,22297
4.94983,22494
4.95245,23652
4.95505,21176
4.95767,22545
4.96027,20389
4.96287,21773
4.96548,20327
4.96808,19934
4.97070,20895
4.97330,20956
4.97590,20385
4.97852,18072
4.98112,19955
4.98373,19530
4.98633,19132
4.98893,17440
4.99155,19474
4.99415,18912
4.99677,19182
4.99937,18503
5.00197,17396
5.00458,18184
5.00718,17952
5.00980,17860
5.01240,19227
5.01500,16130
5.01762,17890
5.02022,16974
5.02283,17021
5.02543,16009
5.02803,15203
5.03065,16696
5.03325,16139
5.03587,15921
5.03847,14731
5.04108,15722
5.04368,14370
5.04628,15013
5.04890,16475
5.05150,14547
5.05412,15894
5.05672,15599
5.05932,17420
5.06193,16330
5.06453,17243
5.06715,14322
5.06975,16237
5.07235,16080
5.07497,15469
5.07757,15700
5.08018,14807
5.08278,14576
5.08538,16533
5.08800,15832
5.09060,15215
5.09322,16583
5.09582,15362
5.09842,15173
5.10103,16863
5.10363,15361
5.10625,18005
5.10885,16967
5.11145,15555
5.11407,15739
5.11667,15312
5.11928,14328
5.12188,13538
5.12450,13541
5.12710,14405
5.12970,14910
5.13232,15555
5.13492,15783
5.13753,14576
5.14013,13933
5.14273,12831
5.14535,14576
5.14795,14695
5.15057,14428
5.15317,14097
5.15577,13254
5.15838,13068
5.16098,14321
5.16360,13505
5.16620,13278
5.16880,14429
5.17142,14848
5.17402,14174
5.17663,12247
5.17923,14071
5.18183,14046
5.18445,12904
5.18705,13002
5.18967,13588
5.19227,13405
5.19487,12666
5.19748,11926
5.20008,12971
5.20270,13843
5.20530,13670
5.20792,12196
5.21052,12482
5.21312,12954
5.21573,13940
5.21833,12319
5.22095,12238
5.22355,12776
5.22615,11274
5.22877,13881
5.23137,12511
5.23398,12971
5.23658,12808
5.23918,9944
5.24180,11151
5.24440,12170
5.24702,12622
5.24962,12157
5.25222,11066
5.25483,12157
5.25743,12962
5.26005,13169
5.26265,12643
5.26525,13955
5.26787,12552
5.27047,12779
5.27308,11387
5.27568,13037
5.27828,12148
5.28090,11177
5.28350,12774
5.28612,12141
5.28872,12144
5.29133,11561
5.29393,11292
5.29653,12287
5.29915,13298
5.30175,11960
5.30437,13039
5.30697,12789
5.30957,11157
5.31218,12109
5.31478,11521
5.31740,11200
5.32000,11987
5.32260,11990
5.32522,10448
5.32782,11015
5.33043,11613
5.33303,10470
5.33563,12302
5.33825,11666
5.34085,11611
5.34347,11350
5.34607,11143
5.34867,11788
5.35128,11401
5.35388,12298
5.35650,12438
5.35910,12095
5.36170,11897
5.36432,11789
5.36692,12078
5.36953,11322
5.37213,11527
5.37475,13467
5.37735,11795
5.37995,11448
5.38257,11612
5.38517,11679
5.38778,11085
5.39038,11103
5.39298,12266
5.39560,10174
5.39820,11520
5.40082,10806
5.40342,12014
5.40602,10620
5.40863,11116
5.41123,13486
5.41385,10310
5.41645,12085
5.41905,11089
5.42167,11644
5.42427,11006
5.42688,10549
5.42948,10944
5.43208,10715
5.43470,10210
5.43730,11387
5.43992,12027
5.44252,11989
5.44512,11243
5.44773,11403
5.45033,12701
5.45295,14657
5.45555,14252
5.45817,13715
5.46077,15666
5.46337,15143
5.46598,15282
5.46858,12173
5.47120,12772
5.47380,11353
5.47640,12944
5.47902,12635
5.48162,10987
5.48423,11308
5.48683,11213
5.48943,12211
5.49205,11692
5.49465,12536
5.49727,11680
5.49987,11471
5.50247,11823
5.50508,11025
5.50768,10015
5.51030,12940
5.51290,11605
5.51550,11880
5.51812,11227
5.52072,11852
5.52333,11276
5.52593,10721
5.52853,11460
5.53115,11542
5.53375,11255
5.53637,11527
5.53897,11597
5.54158,9209
5.54418,11914
5.54678,10372
5.54940,10262
5.55200,10461
5.55462,12070
5.55722,11186
5.55982,12449
5.56243,10668
5.56503,9753
5.56765,11190
5.57025,11345
5.57285,11742
5.57547,12634
5.57807,10341
5.58068,11669
5.58328,10904
5.58588,10685
5.58850,12599
5.59110,9929
5.59372,11361
5.59632,10793
5.59892,10502
5.60153,11198
5.60413,12482
5.60675,10302
5.60935,12466
5.61195,11456
5.61457,10502
5.61717,10017
5.61978,10966
5.62238,11286
5.62500,11599
5.62760,11334
5.63020,12009
5.63282,9520
5.63542,9831
5.63803,12878
5.64063,10665
5.64323,11394
5.64585,11368
5.64845,12426
5.65107,11488
5.65367,9895
5.65627,11220
5.65888,11335
5.66148,11389
5.66410,11273
5.66670,9386
5.66930,10072
5.67192,9854
5.67452,11681
5.67713,11270
5.67973,9267
5.68233,10394
5.68495,11986
5.68755,10821
5.69017,10475
5.69277,12384
5.69537,11018
5.69798,10504
5.70058,12964
5.70320,12735
5.70580,13261
5.70842,13580
5.71102,11618
5.71362,11049
5.71623,13050
5.71883,12627
5.72145,11149
5.72405,11292
5.72665,10984
5.72927,10930
5.73187,10853
5.73448,11669
5.73708,9129
5.73968,10120
5.74230,11340
5.74490,9445
5.74752,10061
5.75012,11276
5.75272,11022
5.75533,10164
5.75793,10719
5.76055,11095
5.76315,11084
5.76575,11293
5.76837,12101
5.77097,11151
5.77358,11350
5.77618,11748
5.77878,10757
5.78140,11406
5.78400,10700
5.78662,11616
5.78922,9641
5.79183,12388
5.79443,12277
5.79703,11830
5.79965,12887
5.80225,12086
5.80487,11918
5.80747,12275
5.81007,13264
5.81268,19741
5.81528,28639
5.81790,43744
5.82050,59972
5.82310,65040
5.82572,63001
5.82832,46370
5.83093,30391
5.83353,22021
5.83613,17316
5.83875,14366
5.84135,16291
5.84397,16174
5.84657,14754
5.84917,15485
5.85178,14278
5.85438,11546
5.85700,15089
5.85960,11309
5.86220,11866
5.86482,11547
5.86742,13507
5.87003,12015
5.87263,10974
5.87525,12065
5.87785,13404
5.88045,11769
5.88307,11045
5.88567,12524
5.88828,12263
5.89088,13076
5.89348,11245
5.89610,13111
5.89870,13782
5.90132,11805
5.90392,12635
5.90652,12703
5.90913,13798
5.91173,13077
5.91435,12016
5.91695,11809
5.91955,12173
5.92217,11035
5.92477,14470
5.92738,13639
5.92998,15347
5.93258,15028
5.93520,15880
5.93780,16699
5.94042,15799
5.94302,16641
5.94563,15429
5.94823,15599
5.95083,14134
5.95345,14235
5.95605,13924
5.95867,15874
5.96127,13409
5.96387,13716
5.96648,13124
5.96908,13674
5.97170,14267
5.97430,13012
5.97690,13866
5.97952,12978
5.98212,13390
5.98473,14312
5.98733,13631
5.98993,12285
5.99255,14404
5.99515,14167
5.99777,14204
6.00037,12985
6.00297,14334
6.00558,11941
6.00818,13380
6.01080,12694
6.01340,13076
6.01600,11069
6.01862,13108
6.02122,13528
6.02383,11502
6.02643,14001
6.02905,13497
6.03165,12986
6.03425,12411
6.03687,12503
6.03947,12520
6.04208,13052
6.04468,15881
6.04728,18906
6.04990,19214
6.05250,21784
6.05512,19932
6.05772,19908
6.06032,19012
6.06293,17780
6.06553,18511
6.06815,17722
6.07075,20063
6.07335,17239
6.07597,16837
6.07857,14570
6.08118,14991
6.08378,14645
6.08638,14030
6.08900,15702
6.09160,13719
6.09422,13404
6.09682,13954
6.09942,14865
6.10203,15680
6.10463,14127
6.10725,13311
6.10985,14051
6.11247,13230
6.11507,15866
6.11767,12322
6.12028,14424
6.12288,13611
6.12550,13256
6.12810,16323
6.13070,15150
6.13332,14202
6.13592,14927
6.13853,12324
6.14113,13194
6.14373,12888
6.14635,13805
6.14895,11809
6.15157,10972
6.15417,12651
6.15677,12325
6.15938,12374
6.16198,12935
6.16460,11244
6.16720,10994
6.16980,12170
6.17242,12888
6.17502,13466
6.17763,13997
6.18023,12590
6.18283,13024
6.18545,12875
6.18805,12496
6.19067,11813
6.19327,12513
6.19588,12962
6.19848,12347
6.20108,11461
6.20370,11022
6.20630,12278
6.20892,12113
6.21152,12089
6.21412,12509
6.21673,11799
6.21933,12995
6.22195,12032
6.22455,13061
6.22715,13449
6.22977,13015
6.23237,11831
6.23498,11362
6.23758,12670
6.24018,11987
6.24280,11000
6.24540,10157
6.24802,12845
6.25062,12499
6.25322,11453
6.25583,11451
6.25843,11864
6.26105,13066
6.26365,13292
6.26625,10075
6.26887,12197
6.27147,10337
6.27408,12549
6.27668,13450
6.27930,11794
6.28190,12868
6.28450,11608
6.28712,13663
6.28972,12461
6.29233,12324
6.29493,10562
6.29753,10737
6.30015,11889
6.30275,11551
6.30537,11972
6.30797,12023
6.31057,13329
6.31318,11662
6.31578,11082
6.31840,12398
6.32100,13622
6.32360,14497
6.32622,12565
6.32882,10662
6.33143,13059
6.33403,12317
6.33663,11079
6.33925,10907
6.34185,13144
6.34447,12761
6.34707,13814
6.34967,12932
6.35228,12636
6.35488,13037
6.35750,12005
6.36010,11890
6.36272,12146
6.36532,13560
6.36792,12450
6.37053,14320
6.37313,12851
6.37575,12261
6.37835,11296
6.38095,11428
6.38357,10922
6.38617,12569
6.38878,11481
6.39138,11184
6.39398,12669
6.39660,11070
6.39920,11994
6.40182,11977
6.40442,13833
6.40702,13232
6.40963,12823
6.41223,11908
6.41485,12833
6.41745,11870
6.42005,13209
6.42267,12746
6.42527,12789
6.42788,11292
6.43048,11692
6.43308,12771
6.43570,12066
6.43830,13226
6.44092,12539
6.44352,9848
6.44613,12278
6.44873,10993
6.45133,11722
6.45395,12965
6.45655,11617
6.45917,12070
6.46177,12665
6.46437,12441
6.46698,11649
6.46958,12734
6.47220,11709
6.47480,14243
6.47740,13341
6.48002,12605
6.48262,15052
6.48523,16072
6.48783,14104
6.49043,13123
6.49305,13595
6.49565,13480
6.49827,13780
6.50087,14393
6.50347,14549
6.50608,17833
6.50868,15306
6.51130,14315
6.51390,13184
6.51650,12422
6.51912,12077
6.52172,13517
6.52433,11981
6.52693,12181
6.52955,13095
6.53215,12556
6.53475,11679
6.53737,12016
6.53997,13271
6.54258,13593
6.54518,13024
6.54778,13428
6.55040,12846
6.55300,13416
6.55562,10704
6.55822,13536
6.56082,13185
6.56343,12793
6.56603,12937
6.56865,11778
6.57125,12028
6.57385,13528
6.57647,13079
6.57907,13561
6.58168,11668
6.58428,14238
6.58688,20239
6.58950,56009
6.59210,202269
6.59472,744325
6.59732,2363996
6.59992,5708815
6.60253,1.039156E+07
6.60513,1.579414E+07
6.60775,2.12148E+07
6.61035,2.571432E+07
6.61297,2.796778E+07
6.61557,2.541651E+07
6.61817,1.465196E+07
6.62078,4799906
6.62338,1295825
6.62600,458802
6.62860,251276
6.63120,182322
6.63382,141544
6.63642,118798
6.63903,98102
6.64163,87126
6.64423,82111
6.64685,70244
6.64945,65371
6.65207,61848
6.65467,59391
6.65727,51191
6.65988,50349
6.66248,46200
6.66510,45502
6.66770,44153
6.67030,42478
6.67292,39504
6.67552,40007
6.67813,38056
6.68073,36259
6.68333,36886
6.68595,33496
6.68855,34446
6.69117,32224
6.69377,29725
6.69638,29154
6.69898,28700
6.70158,28770
6.70420,27559
6.70680,27203
6.70942,25770
6.71202,27092
6.71462,27789
6.71723,27701
6.71983,25944
6.72245,26248
6.72505,24958
6.72765,25301
6.73027,26272
6.73287,24107
6.73548,23002
6.73808,23398
6.74068,22597
6.74330,22111
6.74590,23262
6.74852,23065
6.75112,20518
6.75372,23214
6.75633,21144
6.75893,23064
6.76155,22801
6.76415,24977
6.76675,29534
6.76937,29463
6.77197,27970
6.77458,27399
6.77718,26918
6.77980,22826
6.78240,21439
6.78500,20657
6.78762,21008
6.79022,20857
6.79283,23059
6.79543,23494
6.79803,18636
6.80065,21333
6.80325,21244
6.80587,18752
6.80847,19599
6.81107,19401
6.81368,18559
6.81628,17640
6.81890,17819
6.82150,19175
6.82410,19566
6.82672,17594
6.82932,18831
6.83193,18155
6.83453,16702
6.83713,20537
6.83975,16860
6.84235,16781
6.84497,18283
6.84757,17580
6.85017,17232
6.85278,17902
6.85538,21639
6.85800,28363
6.86060,38780
6.86322,52209
6.86582,56694
6.86842,58296
6.87103,51330
6.87363,43004
6.87625,34432
6.87885,30469
6.88145,27587
6.88407,26018
6.88667,24245
6.88928,22591
6.89188,23272
6.89448,19622
6.89710,20728
6.89970,19912
6.90232,20343
6.90492,19418
6.90752,19631
6.91013,20447
6.91273,21007
6.91535,18193
6.91795,20304
6.92055,18996
6.92317,18736
6.92577,17909
6.92838,17034
6.93098,22176
6.93358,22299
6.93620,23118
6.93880,25688
6.94142,24367
6.94402,24450
6.94663,19715
6.94923,23358
6.95183,18335
6.95445,20659
6.95705,18993
6.95967,19027
6.96227,18786
6.96487,19484
6.96748,19100
6.97008,16833
6.97270,17755
6.97530,18412
6.97790,16630
6.98052,16403
6.98312,16772
6.98573,19563
6.98833,16741
6.99093,19116
6.99355,19347
6.99615,17095
6.99877,16638
7.00137,19191
7.00397,16987
7.00658,18123
7.00918,18479
7.01180,17490
7.01440,18844
7.01700,17252
7.01962,17875
7.02222,15551
7.02483,17121
7.02743,17163
7.03005,17006
7.03265,16713
7.03525,18779
7.03787,16198
7.04047,17087
7.04308,17298
7.04568,16271
7.04828,19379
7.05090,20487
7.05350,19906
7.05612,19990
7.05872,20816
7.06132,21028
7.06393,18950
7.06653,17849
7.06915,19041
7.07175,17412
7.07435,18706
7.07697,19320
7.07957,16504
7.08218,17155
7.08478,17955
7.08738,18254
7.09000,17613
7.09260,17971
7.09522,16082
7.09782,16705
7.10042,19094
7.10303,17949
7.10563,18177
7.10825,18193
7.11085,18291
7.11347,19010
7.11607,16981
7.11867,18896
7.12128,19446
7.12388,18867
7.12650,14242
7.12910,16046
7.13170,16731
7.13432,17332
7.13692,17275
7.13953,17355
7.14213,16294
7.14473,17094
7.14735,17441
7.14995,17661
7.15257,17419
7.15517,18525
7.15777,16711
7.16038,17254
7.16298,18424
7.16560,18162
7.16820,18506
7.17080,17124
7.17342,18154
7.17602,17304
7.17863,17999
7.18123,16832
7.18383,17059
7.18645,18741
7.18905,18241
7.19167,17637
7.19427,18207
7.19688,17476
7.19948,19096
7.20208,17036
7.20470,18721
7.20730,19868
7.20992,19965
7.21252,22067
7.21512,23131
7.21773,22121
7.22033,19557
7.22295,19990
7.22555,19089
7.22815,18622
7.23077,19101
7.23337,18167
7.23598,19761
7.23858,21039
7.24118,22082
7.24380,22709
7.24640,22232
7.24902,18938
7.25162,19499
7.25422,19890
7.25683,17957
7.25943,18148
7.26205,17152
7.26465,17153
7.26725,17178
7.26987,17683
7.27247,16615
7.27508,17932
7.27768,18180
7.28030,18067
7.28290,17905
7.28550,17690
7.28812,17545
7.29072,17456
7.29333,18578
7.29593,17903
7.29853,19420
7.30115,18422
7.30375,18161
7.30637,19403
7.30897,16784
7.31157,16370
7.31418,18451
7.31678,19999
7.31940,18795
7.32200,16112
7.32460,17806
7.32722,18521
7.32982,19046
7.33243,16042
7.33503,18159
7.33763,16540
7.34025,17576
7.34285,17718
7.34547,17416
7.34807,18188
7.35067,19073
7.35328,18911
7.35588,18153
7.35850,19784
7.36110,18141
7.36372,19634
7.36632,19840
7.36892,17859
7.37153,17463
7.37413,19390
7.37675,18020
7.37935,20190
7.38195,18064
7.38457,17529
7.38717,18822
7.38978,17578
7.39238,18608
7.39498,18332
7.39760,17916
7.40020,18627
7.40282,19032
7.40542,19160
7.40802,18127
7.41063,18069
7.41323,18184
7.41585,17450
7.41845,19648
7.42105,18279
7.42367,19928
7.42627,17768
7.42888,18687
7.43148,19046
7.43408,16442
7.43670,18923
7.43930,18069
7.44192,17636
7.44452,19636
7.44713,18556
7.44973,18028
7.45233,19137
7.45495,19290
7.45755,18953
7.46017,17918
7.46277,17001
7.46537,17413
7.46798,18779
7.47058,18961
7.47320,20573
7.47580,19509
7.47840,20343
7.48102,17884
7.48362,19726
7.48623,16527
7.48883,17859
7.49143,18654
7.49405,19229
7.49665,20107
7.49927,18455
7.50187,21477
7.50447,18180
7.50708,18306
7.50968,19806
7.51230,21312
7.51490,20979
7.51750,21107
7.52012,21376
7.52272,20088
7.52533,21895
7.52793,21030
7.53055,21910
7.53315,22283
7.53575,20688
7.53837,18100
7.54097,19502
7.54358,20890
7.54618,19639
7.54878,18794
7.55140,21783
7.55400,22746
7.55662,20426
7.55922,22167
7.56182,22920
7.56443,20973
7.56703,20664
7.56965,21313
7.57225,22648
7.57485,23956
7.57747,23210
7.58007,26430
7.58268,25414
7.58528,25995
7.58788,25381
7.59050,26440
7.59310,23825
7.59572,20471
7.59832,22534
7.60092,18710
7.60353,20654
7.60613,19341
7.60875,21620
7.61135,20943
7.61397,20385
7.61657,20225
7.61917,19547
7.62178,18724
7.62438,19455
7.62700,21611
7.62960,22663
7.63220,20381
7.63482,21580
7.63742,20896
7.64003,20247
7.64263,20616
7.64523,22896
7.64785,22485
7.65045,21359
7.65307,21520
7.65567,20234
7.65827,20238
7.66088,21046
7.66348,21245
7.66610,23272
7.66870,23844
7.67130,25925
7.67392,33487
7.67652,37483
7.67913,39180
7.68173,38911
7.68433,36759
7.68695,30164
7.68955,26708
7.69217,26483
7.69477,25162
7.69738,23955
7.69998,24749
7.70258,21251
7.70520,21436
7.70780,23209
7.71042,21754
7.71302,20220
7.71562,22063
7.71823,24050
7.72083,22665
7.72345,24712
7.72605,22849
7.72865,22474
7.73127,22738
7.73387,24696
7.73648,22056
7.73908,23758
7.74168,21981
7.74430,21351
7.74690,22650
7.74952,21958
7.75212,23332
7.75472,22918
7.75733,24348
7.75993,22512
7.76255,24499
7.76515,24884
7.76775,22774
7.77037,22683
7.77297,22049
7.77558,23868
7.77818,22895
7.78080,21585
7.78340,22918
7.78600,22298
7.78862,25501
7.79122,22944
7.79383,24803
7.79643,22186
7.79903,23565
7.80165,22366
7.80425,22105
7.80687,24012
7.80947,24618
7.81207,22933
7.81468,22345
7.81728,23368
7.81990,24452
7.82250,25239
7.82510,27743
7.82772,29172
7.83032,29854
7.83293,28816
7.83553,26749
7.83813,25194
7.84075,24789
7.84335,24685
7.84597,22886
7.84857,25730
7.85117,23950
7.85378,25965
7.85638,23916
7.85900,25469
7.86160,24712
7.86422,21438
7.86682,24502
7.86942,24837
7.87203,23861
7.87463,22707
7.87725,26758
7.87985,24375
7.88245,24861
7.88507,24326
7.88767,25733
7.89028,24759
7.89288,24949
7.89548,26091
7.89810,23305
7.90070,25370
7.90332,28464
7.90592,28617
7.90852,28212
7.91113,31191
7.91373,31736
7.91635,28623
7.91895,26499
7.92155,26768
7.92417,25699
7.92677,25580
7.92938,25451
7.93198,26184
7.93458,26274
7.93720,26607
7.93980,24990
7.94242,26019
7.94502,27282
7.94763,25231
7.95023,27169
7.95283,26061
7.95545,26694
7.95805,25612
7.96067,29073
7.96327,26197
7.96587,25505
7.96848,26626
7.97108,28000
7.97370,27486
7.97630,25493
7.97890,25327
7.98152,26190
7.98412,25760
7.98673,27494
7.98933,26503
7.99193,27542
7.99455,24589
7.99715,25883
7.99977,27405
8.00237,26923
8.00497,27519
8.00758,25123
8.01018,27190
8.01280,26153
8.01540,25451
8.01800,27896
8.02062,29531
8.02322,29346
8.02583,27545
8.02843,25442
8.03105,27434
8.03365,26314
8.03625,28554
8.03887,27706
8.04147,28922
8.04408,28684
8.04668,27912
8.04928,31044
8.05190,28792
8.05450,35321
8.05712,61693
8.05972,171769
8.06232,566010
8.06493,1743417
8.06753,4620396
8.07015,9064412
8.07275,1.412573E+07
8.07535,1.793773E+07
8.07797,1.854182E+07
8.08057,1.513084E+07
8.08318,9280570
8.08578,4814241
8.08838,2565072
8.09100,1558655
8.09360,1059912
8.09622,841025
8.09882,641186
8.10142,568705
8.10403,465970
8.10663,410802
8.10925,357845
8.11185,318058
8.11447,279038
8.11707,249197
8.11967,220153
8.12228,201634
8.12488,185822
8.12750,167603
8.13010,163108
8.13270,147762
8.13532,144873
8.13792,131576
8.14053,128639
8.14313,117749
8.14573,111406
8.14835,104805
8.15095,98018
8.15357,98277
8.15617,93855
8.15877,92487
8.16138,85826
8.16398,77259
8.16660,80010
8.16920,77698
8.17180,77237
8.17442,70735
8.17702,68512
8.17963,75167
8.18223,71147
8.18483,70904
8.18745,63785
8.19005,64206
8.19267,61615
8.19527,57297
8.19788,57693
8.20048,58918
8.20308,59584
8.20570,57442
8.20830,63971
8.21092,59150
8.21352,57379
8.21612,55383
8.21873,52063
8.22133,54652
8.22395,52309
8.22655,50390
8.22915,49342
8.23177,48166
8.23437,47501
8.23698,46820
8.23958,47094
8.24218,47497
8.24480,46253
8.24740,45309
8.25002,44642
8.25262,46420
8.25522,46308
8.25783,45647
8.26043,44942
8.26305,43484
8.26565,45140
8.26825,43272
8.27087,45191
8.27347,44960
8.27608,42949
8.27868,44850
8.28130,43672
8.28390,42522
8.28650,43837
8.28912,42999
8.29172,42098
8.29433,41813
8.29693,42117
8.29953,43605
8.30215,45664
8.30475,46525
8.30737,44061
8.30997,44532
8.31257,43094
8.31518,44100
8.31778,45422
8.32040,42407
8.32300,39422
8.32560,42488
8.32822,41481
8.33082,41812
8.33343,40725
8.33603,43621
8.33863,42886
8.34125,42441
8.34385,42501
8.34647,45939
8.34907,46582
8.35167,42452
8.35428,44875
8.35688,40447
8.35950,43132
8.36210,40811
8.36472,41937
8.36732,42421
8.36992,42653
8.37253,43972
8.37513,43930
8.37775,43680
8.38035,44586
8.38295,46545
8.38557,44278
8.38817,41858
8.39078,44381
8.39338,44946
8.39598,43923
8.39860,46161
8.40120,44439
8.40382,44639
8.40642,45627
8.40902,50740
8.41163,45650
8.41423,44232
8.41685,45130
8.41945,46591
8.42205,47471
8.42467,46076
8.42727,45992
8.42988,44866
8.43248,46456
8.43508,43883
8.43770,44879
8.44030,49168
8.44292,45240
8.44552,47797
8.44813,46131
8.45073,47595
8.45333,45241
8.45595,48836
8.45855,47689
8.46117,46941
8.46377,45742
8.46637,49669
8.46898,47773
8.47158,52622
8.47420,53910
8.47680,55633
8.47940,56277
8.48202,59554
8.48462,53890
8.48723,53291
8.48983,50307
8.49243,49871
8.49505,48691
8.49765,51876
8.50027,50484
8.50287,52082
8.50547,55629
8.50808,62710
8.51068,65170
8.51330,64869
8.51590,62225
8.51850,60031
8.52112,55267
8.52372,55932
8.52633,54340
8.52893,54017
8.53155,50967
8.53415,53236
8.53675,55887
8.53937,53230
8.54197,55621
8.54458,56318
8.54718,52090
8.54978,54041
8.55240,54724
8.55500,56750
8.55762,55755
8.56022,56147
8.56282,54778
8.56543,53676
8.56803,58906
8.57065,56289
8.57325,55248
8.57585,57812
8.57847,56774
8.58107,55730
8.58368,57002
8.58628,60135
8.58888,58956
8.59150,59336
8.59410,58695
8.59672,61035
8.59932,59722
8.60192,62024
8.60453,60904
8.60713,61212
8.60975,58708
8.61235,58705
8.61497,60291
8.61757,64399
8.62017,59945
8.62278,62021
8.62538,62948
8.62800,60682
8.63060,66236
8.63320,64799
8.63582,61207
8.63842,65357
8.64103,62332
8.64363,64775
8.64623,62202
8.64885,64613
8.65145,62529
8.65407,63384
8.65667,67490
8.65927,65032
8.66188,67693
8.66448,67704
8.66710,69997
8.66970,66543
8.67230,66504
8.67492,71161
8.67752,68909
8.68013,70614
8.68273,71397
8.68533,69249
8.68795,74871
8.69055,72334
8.69317,72563
8.69577,72875
8.69838,74095
8.70098,76792
8.70358,72775
8.70620,78523
8.70880,78459
8.71142,85079
8.71402,81900
8.71662,82366
8.71923,83506
8.72183,82270
8.72445,82150
8.72705,82950
8.72965,83052
8.73227,83070
8.73487,79279
8.73748,77375
8.74008,81504
8.74268,82374
8.74530,79099
8.74790,77171
8.75052,80543
8.75312,79472
8.75572,79707
8.75833,79985
8.76093,80021
8.76355,80096
8.76615,83519
8.76875,81126
8.77137,82147
8.77397,76955
8.77658,78142
8.77918,81510
8.78180,88027
8.78440,83690
8.78700,83793
8.78962,85297
8.79222,83291
8.79483,86232
8.79743,80862
8.80003,83000
8.80265,84037
8.80525,80938
8.80787,87172
8.81047,84273
8.81307,86474
8.81568,89494
8.81828,83890
8.82090,86503
8.82350,91445
8.82610,86128
8.82872,86154
8.83132,85718
8.83393,90575
8.83653,89499
8.83913,91733
8.84175,89742
8.84435,89112
8.84697,90324
8.84957,88417
8.85217,92434
8.85478,92069
8.85738,89138
8.86000,95032
8.86260,88590
8.86522,86402
8.86782,88921
8.87042,94352
8.87303,89290
8.87563,91275
8.87825,92927
8.88085,90080
8.88345,92715
8.88607,93604
8.88867,91926
8.89128,94054
8.89388,96757
8.89648,94977
8.89910,94162
8.90170,94909
8.90432,92884
8.90692,95667
8.90952,93309
8.91213,97674
8.91473,94874
8.91735,97421
8.91995,95679
8.92255,94554
8.92517,99672
8.92777,97583
8.93038,102134
8.93298,96274
8.93558,103099
8.93820,100523
8.94080,103009
8.94342,98358
8.94602,96405
8.94863,104537
8.95123,97524
8.95383,97700
8.95645,95277
8.95905,94981
8.96167,101308
8.96427,98999
8.96687,100148
8.96948,101254
8.97208,100735
8.97470,95828
8.97730,98013
8.97990,100311
8.98252,100586
8.98512,100406
8.98773,101051
8.99033,100268
8.99293,101064
8.99555,101614
8.99815,100346
9.00077,98509
9.00337,97601
9.00597,101025
9.00858,99125
9.01118,100298
9.01380,99502
9.01640,100386
9.01900,98514
9.02162,97829
9.02422,99948
9.02683,101049
9.02943,101993
9.03205,103149
9.03465,102469
9.03725,99804
9.03987,105136
9.04247,101073
9.04508,103410
9.04768,99898
9.05028,102103
9.05290,101955
9.05550,102187
9.05812,104291
9.06072,105885
9.06332,101674
9.06593,101789
9.06853,102764
9.07115,103011
9.07375,102367
9.07635,104268
9.07897,103381
9.08157,102498
9.08418,102889
9.08678,103305
9.08938,103265
9.09200,105235
9.09460,103547
9.09722,101075
9.09982,103042
9.10242,100058
9.10503,100824
9.10763,104569
9.11025,105415
9.11285,101086
9.11547,105278
9.11807,104360
9.12067,101734
9.12328,106118
9.12588,107759
9.12850,101747
9.13110,102628
9.13370,107447
9.13632,101881
9.13892,101700
9.14153,104523
9.14413,103794
9.14673,101555
9.14935,104165
9.15195,101471
9.15457,105321
9.15717,100661
9.15977,101757
9.16238,103908
9.16498,107922
9.16760,105418
9.17020,105201
9.17280,103558
9.17542,103418
9.17802,101061
9.18063,105026
9.18323,104427
9.18583,109237
9.18845,103112
9.19105,101398
9.19367,109023
9.19627,106495
9.19888,108504
9.20148,111282
9.20408,103984
9.20670,112342
9.20930,104603
9.21192,106490
9.21452,107245
9.21712,105746
9.21973,105251
9.22233,103133
9.22495,107486
9.22755,107211
9.23015,104398
9.23277,106384
9.23537,106065
9.23798,103299
9.24058,103874
9.24318,105653
9.24580,108890
9.24840,102994
9.25102,107823
9.25362,97672
9.25622,103203
9.25883,102642
9.26143,105192
9.26405,104336
9.26665,103156
9.26925,102212
9.27187,101908
9.27447,108215
9.27708,105066
9.27968,107863
9.28230,106967
9.28490,105653
9.28750,101551
9.29012,106339
9.29272,103412
9.29533,106940
9.29793,104231
9.30053,107494
9.30315,104279
9.30575,103946
9.30837,104267
9.31097,103927
9.31357,103176
9.31618,107765
9.31878,103173
9.32140,104352
9.32400,100367
9.32660,102842
9.32922,101141
9.33182,106444
9.33443,103620
9.33703,104462
9.33963,105664
9.34225,104573
9.34485,103265
9.34747,108305
9.35007,105230
9.35267,102877
9.35528,105075
9.35788,102374
9.36050,105848
9.36310,102787
9.36572,108659
9.36832,108695
9.37092,102916
9.37353,106412
9.37613,106214
9.37875,104652
9.38135,107983
9.38395,107080
9.38657,101621
9.38917,104681
9.39178,105859
9.39438,102125
9.39698,106835
9.39960,105582
9.40220,105225
9.40482,105510
9.40742,105342
9.41002,104070
9.41263,104560
9.41523,104332
9.41785,106884
9.42045,110655
9.42305,102095
9.42567,106302
9.42827,103734
9.43088,107252
9.43348,106174
9.43608,103488
9.43870,103956
9.44130,105676
9.44392,102413
9.44652,105736
9.44913,106602
9.45173,101127
9.45433,105695
9.45695,103540
9.45955,107545
9.46217,102825
9.46477,104663
9.46737,104711
9.46998,103642
9.47258,105681
9.47520,106902
9.47780,104750
9.48040,100523
9.48302,106204
9.48562,104565
9.48823,102776
9.49083,108855
9.49343,106507
9.49605,100930
9.49865,103878
9.50127,105677
9.50387,102763
9.50647,107715
9.50908,109010
9.51168,102648
9.51430,104336
9.51690,106203
9.51950,103971
9.52212,104141
9.52472,104592
9.52733,101822
9.52993,103654
9.53255,101737
9.53515,103755
9.53775,107889
9.54037,107991
9.54297,105024
9.54558,104263
9.54818,104233
9.55078,102161
9.55340,106149
9.55600,101550
9.55862,103911
9.56122,100835
9.56382,105009
9.56643,109090
9.56903,107742
9.57165,104296
9.57425,106022
9.57685,100357
9.57947,105849
9.58207,104157
9.58468,105772
9.58728,104165
9.58988,109062
9.59250,105843
9.59510,106618
9.59772,101442
9.60032,106616
9.60292,105448
9.60553,102791
9.60813,107268
9.61075,103451
9.61335,104710
9.61597,108591
9.61857,103617
9.62117,103851
9.62378,104957
9.62638,107737
9.62900,108576
9.63160,102945
9.63420,103513
9.63682,103515
9.63942,104442
9.64203,100457
9.64463,105129
9.64723,104390
9.64985,106546
9.65245,106138
9.65507,109210
9.65767,107353
9.66027,103081
9.66288,105251
9.66548,100625
9.66810,106445
9.67070,105724
9.67330,108506
9.67592,108416
9.67852,101654
9.68113,107467
9.68373,106318
9.68633,102387
9.68895,109393
9.69155,105214
9.69417,105275
9.69677,105098
9.69938,103989
9.70198,109310
9.70458,102885
9.70720,104219
9.70980,105003
9.71242,101005
9.71502,109680
9.71762,107129
9.72023,107636
9.72283,105566
9.72545,108242
9.72805,104879
9.73065,103953
9.73327,109571
9.73587,103795
9.73848,106572
9.74108,103899
9.74368,106327
9.74630,105401
9.74890,105157
9.75152,105505
9.75412,102917
9.75672,105609
9.75933,105424
9.76193,106360
9.76455,104169
9.76715,101896
9.76975,105519
9.77237,103376
9.77497,102385
9.77758,104307
9.78018,108290
9.78280,104628
9.78540,104419
9.78800,105492
9.79062,102136
9.79322,106945
9.79583,103477
9.79843,106839
9.80103,106403
9.80365,108417
9.80625,101712
9.80887,104380
9.81147,108296
9.81407,100507
9.81668,102717
9.81928,106430
9.82190,110360
9.82450,106261
9.82710,105762
9.82972,104969
9.83232,102327
9.83493,108146
9.83753,104166
9.84013,107569
9.84275,103641
9.84535,107404
9.84797,101456
9.85057,102696
9.85317,105262
9.85578,106446
9.85838,106085
9.86100,105320
9.86360,106031
9.86622,104390
9.86882,106881
9.87142,102277
9.87403,104331
9.87663,105263
9.87925,103921
9.88185,105220
9.88445,103746
9.88707,103856
9.88967,102809
9.89228,110027
9.89488,107866
9.89748,102289
9.90010,105414
9.90270,103709
9.90532,104870
9.90792,105517
9.91052,99422
9.91313,110628
9.91573,103946
9.91835,102053
9.92095,103946
9.92355,105918
9.92617,98286
9.92877,101910
9.93138,97407
9.93398,101664
9.93658,103210
9.93920,108041
9.94180,105224
9.94442,102458
9.94702,105031
9.94963,103470
9.95223,107434
9.95483,102578
9.95745,103135
9.96005,105131
9.96267,105073
9.96527,102622
9.96787,101737
9.97048,104819
9.97308,104665
9.97570,106131
9.97830,106520
9.98090,100855
9.98352,105044
9.98612,106284
9.98873,107106
9.99133,105681
9.99393,103471
9.99655,107197
9.99915,103134
10.00177,103139
10.00437,104256
10.00697,104069
10.00958,102644
10.01218,108290
10.01480,107017
10.01740,108579
10.02000,108669
10.02262,108542
10.02522,102636
10.02783,106391
10.03043,107786
10.03305,103171
10.03565,105273
10.03825,101423
10.04087,106825
10.04347,105171
10.04608,108609
10.04868,106346
10.05128,101907
10.05390,106439
10.05650,105191
10.05912,111324
10.06172,106359
10.06432,108567
10.06693,104759
10.06953,110445
10.07215,110262
10.07475,102923
10.07735,111432
10.07997,109053
10.08257,105490
10.08518,104847
10.08778,105649
10.09038,106523
10.09300,109879
10.09560,106981
10.09822,107746
10.10082,109513
10.10342,108150
10.10603,110844
10.10863,108183
10.11125,104755
10.11385,111300
10.11647,107504
10.11907,109873
10.12167,106333
10.12428,101181
10.12688,104688
10.12950,111973
10.13210,107962
10.13470,106947
10.13732,108089
10.13992,107427
10.14253,105216
10.14513,108088
10.14773,102653
10.15035,105593
10.15295,109371
10.15557,104914
10.15817,109719
10.16077,107289
10.16338,108627
10.16598,103968
10.16860,108668
10.17120,104798
10.17380,103623
10.17642,109756
10.17902,104082
10.18163,106162
10.18423,105427
10.18683,106357
10.18945,102797
10.19205,106811
10.19467,106279
10.19727,106429
10.19988,104224
10.20248,106773
10.20508,109294
10.20770,105868
10.21030,107236
10.21292,108896
10.21552,109146
10.21812,106745
10.22073,106130
10.22333,108125
10.22595,105973
10.22855,105715
10.23115,102515
10.23377,106653
10.23637,109870
10.23898,106020
10.24158,103323
10.24418,105035
10.24680,105291
10.24940,107850
10.25202,102651
10.25462,103734
10.25722,108094
10.25983,107304
10.26243,102869
10.26505,103669
10.26765,102571
10.27025,102138
10.27287,106278
10.27547,107699
10.27808,108810
10.28068,101968
10.28330,102261
10.28590,102685
10.28850,107174
10.29112,105276
10.29372,104477
10.29633,102548
10.29893,101980
10.30153,105198
10.30415,106351
10.30675,103527
10.30937,107413
10.31197,106698
10.31457,104337
10.31718,104842
10.31978,106906
10.32240,107389
10.32500,108322
10.32760,105018
10.33022,109074
10.33282,105699
10.33543,107334
10.33803,104324
10.34063,104904
10.34325,108652
10.34585,102275
10.34847,107294
10.35107,107215
10.35367,103937
10.35628,106152
10.35888,106568
10.36150,102851
10.36410,100313
10.36672,105671
10.36932,105353
10.37192,103981
10.37453,104489
10.37713,110341
10.37975,104099
10.38235,101201
10.38495,105979
10.38757,106643
10.39017,107066
10.39278,103337
10.39538,105382
10.39798,107891
10.40060,105013
10.40320,106693
10.40582,107087
10.40842,104787
10.41102,104770
10.41363,104957
10.41623,104921
10.41885,108215
10.42145,107342
10.42405,109135
10.42667,107081
10.42927,108046
10.43188,109149
10.43448,107817
10.43708,109504
10.43970,110338
10.44230,109852
10.44492,107118
10.44752,108275
10.45013,115138
10.45273,110934
10.45533,110369
10.45795,113127
10.46055,116470
10.46317,114641
10.46577,114158
10.46837,114191
10.47098,119108
10.47358,117431
10.47620,116127
10.47880,118771
10.48140,119188
10.48402,116626
10.48662,114970
10.48923,117297
10.49183,116372
10.49443,123006
10.49705,120606
10.49965,121271
10.50227,122520
10.50487,118223
10.50747,114441
10.51008,113992
10.51268,118794
10.51530,115350
10.51790,118711
10.52050,121433
10.52312,110810
10.52572,114629
10.52833,117475
10.53093,112501
10.53355,114483
10.53615,118937
10.53875,112848
10.54137,110298
10.54397,111170
10.54658,111486
10.54918,111772
10.55178,114477
10.55440,111704
10.55700,112468
10.55962,110883
10.56222,111911
10.56482,110733
10.56743,111329
10.57003,108824
10.57265,105870
10.57525,107441
10.57785,110397
10.58047,108287
10.58307,109021
10.58568,109714
10.58828,104870
10.59088,103672
10.59350,109833
10.59610,107603
10.59872,108823
10.60132,108827
10.60392,109351
10.60653,110208
10.60913,110783
10.61175,107212
10.61435,107794
10.61697,109317
10.61957,110472
10.62217,112179
10.62478,107210
10.62738,111573
10.63000,111642
10.63260,111200
10.63520,111832
10.63782,107621
10.64042,107877
10.64303,108103
10.64563,114145
10.64823,105433
10.65085,108343
10.65345,103577
10.65607,107583
10.65867,106001
10.66127,105412
