D:\data\overige2021\rk\20200201rk_cocacase28x\B039748.D Mon Feb 01 17:48:08 2021
Start of data points
1.58972,11215
1.59232,10223
1.59493,11046
1.59753,10377
1.60013,12450
1.60275,11535
1.60535,11472
1.60797,10260
1.61057,10703
1.61318,11299
1.61578,9849
1.61838,10340
1.62100,8458
1.62360,10545
1.62622,10446
1.62882,11758
1.63142,11316
1.63403,11172
1.63663,9447
1.63925,10099
1.64185,10482
1.64445,9745
1.64707,9024
1.64967,11089
1.65228,9292
1.65488,9396
1.65748,9878
1.66010,9414
1.66270,9582
1.66532,9217
1.66792,10248
1.67052,9183
1.67313,9330
1.67573,10006
1.67835,10519
1.68095,8578
1.68355,9440
1.68617,9114
1.68877,9544
1.69138,8951
1.69398,8752
1.69660,9961
1.69920,10903
1.70180,9245
1.70442,11806
1.70702,10823
1.70963,12683
1.71223,11107
1.71483,10031
1.71745,10956
1.72005,9957
1.72267,9363
1.72527,8753
1.72787,8993
1.73048,8152
1.73308,10142
1.73570,9467
1.73830,8170
1.74090,9581
1.74352,7712
1.74612,8158
1.74873,7964
1.75133,8128
1.75393,8568
1.75655,8188
1.75915,7984
1.76177,8383
1.76437,7873
1.76697,8919
1.76958,7054
1.77218,8062
1.77480,8569
1.77740,7313
1.78002,7868
1.78262,8801
1.78522,7884
1.78783,6844
1.79043,8439
1.79305,7408
1.79565,7967
1.79825,5737
1.80087,7915
1.80347,7045
1.80608,5682
1.80868,8116
1.81128,6911
1.81390,6694
1.81650,7148
1.81912,6212
1.82172,7416
1.82432,6765
1.82693,5738
1.82953,6116
1.83215,8258
1.83475,7229
1.83735,7133
1.83997,6731
1.84257,6409
1.84518,5811
1.84778,6486
1.85038,6713
1.85300,6188
1.85560,5623
1.85822,6182
1.86082,7247
1.86343,7388
1.86603,6690
1.86863,7156
1.87125,7683
1.87385,6721
1.87647,7083
1.87907,5935
1.88167,6662
1.88428,6022
1.88688,6565
1.88950,7130
1.89210,6473
1.89470,6003
1.89732,6755
1.89992,6474
1.90253,7738
1.90513,6565
1.90773,7033
1.91035,7853
1.91295,6650
1.91557,6795
1.91817,5736
1.92077,6166
1.92338,5665
1.92598,5753
1.92860,6513
1.93120,5887
1.93380,5904
1.93642,5983
1.93902,5188
1.94163,6371
1.94423,5723
1.94685,4957
1.94945,6224
1.95205,5310
1.95467,5385
1.95727,5143
1.95988,6948
1.96248,5467
1.96508,6381
1.96770,5776
1.97030,5893
1.97292,5005
1.97552,5017
1.97812,6181
1.98073,6761
1.98333,6088
1.98595,6269
1.98855,6195
1.99115,6552
1.99377,5549
1.99637,4719
1.99898,5521
2.00158,5474
2.00418,6164
2.00680,4930
2.00940,5325
2.01202,5543
2.01462,6869
2.01722,4933
2.01983,5654
2.02243,4935
2.02505,6075
2.02765,5922
2.03027,6221
2.03287,5118
2.03547,6021
2.03808,5126
2.04068,7112
2.04330,8450
2.04590,7781
2.04850,7385
2.05112,8187
2.05372,8178
2.05633,8733
2.05893,7341
2.06153,8322
2.06415,7113
2.06675,7285
2.06937,6213
2.07197,6970
2.07457,6641
2.07718,7395
2.07978,7349
2.08240,6888
2.08500,7101
2.08760,7169
2.09022,6020
2.09282,5389
2.09543,6190
2.09803,5765
2.10063,4692
2.10325,6101
2.10585,4807
2.10847,6575
2.11107,6810
2.11368,6299
2.11628,7705
2.11888,6297
2.12150,7136
2.12410,4307
2.12672,5743
2.12932,5594
2.13192,6423
2.13453,5871
2.13713,5989
2.13975,5721
2.14235,5028
2.14495,6011
2.14757,6630
2.15017,4788
2.15278,5448
2.15538,6120
2.15798,5981
2.16060,5954
2.16320,6057
2.16582,5640
2.16842,5564
2.17102,4437
2.17363,5126
2.17623,5243
2.17885,4169
2.18145,5851
2.18405,5536
2.18667,5217
2.18927,5107
2.19188,5965
2.19448,5571
2.19710,4340
2.19970,6160
2.20230,5073
2.20492,4744
2.20752,5855
2.21013,5769
2.21273,5818
2.21533,5603
2.21795,4439
2.22055,5257
2.22317,4878
2.22577,4339
2.22837,6489
2.23098,5879
2.23358,5481
2.23620,4991
2.23880,4936
2.24140,5700
2.24402,5486
2.24662,5145
2.24923,5673
2.25183,5012
2.25443,4607
2.25705,4679
2.25965,5913
2.26227,5210
2.26487,5069
2.26747,5028
2.27008,5728
2.27268,4319
2.27530,4787
2.27790,6143
2.28052,4579
2.28312,6224
2.28572,6366
2.28833,5980
2.29093,6086
2.29355,5065
2.29615,5037
2.29875,5186
2.30137,5821
2.30397,5356
2.30658,5494
2.30918,5263
2.31178,5327
2.31440,4710
2.31700,4827
2.31962,5029
2.32222,5174
2.32482,5225
2.32743,4474
2.33003,3993
2.33265,4259
2.33525,4575
2.33785,4666
2.34047,4223
2.34307,5344
2.34568,4659
2.34828,5120
2.35088,5747
2.35350,5195
2.35610,5535
2.35872,4537
2.36132,5415
2.36393,6316
2.36653,5874
2.36913,4557
2.37175,4816
2.37435,4463
2.37697,4930
2.37957,5301
2.38217,4998
2.38478,5361
2.38738,6249
2.39000,4999
2.39260,5343
2.39520,4331
2.39782,4401
2.40042,4343
2.40303,5260
2.40563,5209
2.40823,4445
2.41085,5364
2.41345,4917
2.41607,5203
2.41867,5406
2.42127,5972
2.42388,4609
2.42648,5061
2.42910,5033
2.43170,4349
2.43430,5218
2.43692,5449
2.43952,3875
2.44213,5218
2.44473,5191
2.44735,6084
2.44995,6399
2.45255,5851
2.45517,7286
2.45777,8274
2.46038,9187
2.46298,8234
2.46558,8151
2.46820,9569
2.47080,8051
2.47342,7512
2.47602,7888
2.47862,6602
2.48123,6511
2.48383,6201
2.48645,5920
2.48905,7452
2.49165,6915
2.49427,6001
2.49687,5965
2.49948,6020
2.50208,5945
2.50468,6237
2.50730,6150
2.50990,5097
2.51252,5309
2.51512,5600
2.51772,6410
2.52033,5312
2.52293,5533
2.52555,4220
2.52815,4715
2.53077,5647
2.53337,4936
2.53597,5475
2.53858,4453
2.54118,4353
2.54380,4873
2.54640,4324
2.54900,4959
2.55162,4336
2.55422,5860
2.55683,5562
2.55943,4633
2.56203,4462
2.56465,6132
2.56725,5031
2.56987,4779
2.57247,5175
2.57507,4610
2.57768,4609
2.58028,5018
2.58290,5558
2.58550,5647
2.58810,4563
2.59072,5421
2.59332,5492
2.59593,5532
2.59853,5681
2.60113,4878
2.60375,4466
2.60635,5386
2.60897,5406
2.61157,4989
2.61418,5312
2.61678,5547
2.61938,3700
2.62200,5017
2.62460,4338
2.62722,5525
2.62982,5495
2.63242,4738
2.63503,4750
2.63763,4825
2.64025,5373
2.64285,5660
2.64545,4579
2.64807,4399
2.65067,5229
2.65328,4766
2.65588,5584
2.65848,5094
2.66110,4268
2.66370,4700
2.66632,4640
2.66892,4901
2.67152,4649
2.67413,4118
2.67673,6040
2.67935,4833
2.68195,4191
2.68455,5720
2.68717,4856
2.68977,4494
2.69238,4275
2.69498,4461
2.69760,5265
2.70020,4851
2.70280,5680
2.70542,4847
2.70802,5462
2.71063,4330
2.71323,4962
2.71583,4185
2.71845,5427
2.72105,6041
2.72367,4007
2.72627,4797
2.72887,4966
2.73148,5054
2.73408,4683
2.73670,5390
2.73930,4213
2.74190,4824
2.74452,4630
2.74712,4622
2.74973,4656
2.75233,5694
2.75493,5191
2.75755,3901
2.76015,4884
2.76277,4026
2.76537,4447
2.76797,4487
2.77058,4903
2.77318,5240
2.77580,4999
2.77840,5112
2.78102,3771
2.78362,3623
2.78622,4973
2.78883,5077
2.79143,4128
2.79405,4414
2.79665,4821
2.79925,4988
2.80187,5177
2.80447,5381
2.80708,3884
2.80968,4415
2.81228,5434
2.81490,4838
2.81750,3744
2.82012,4346
2.82272,4699
2.82532,4377
2.82793,4141
2.83053,5789
2.83315,5227
2.83575,4284
2.83835,5361
2.84097,4006
2.84357,5276
2.84618,4980
2.84878,4879
2.85140,4510
2.85400,4756
2.85660,5151
2.85922,3807
2.86182,5048
2.86443,5114
2.86703,5199
2.86963,4361
2.87225,4225
2.87485,4671
2.87747,4886
2.88007,5051
2.88267,5211
2.88528,4836
2.88788,4414
2.89050,5653
2.89310,4429
2.89570,5027
2.89832,5009
2.90092,5036
2.90353,5657
2.90613,4874
2.90873,4128
2.91135,4620
2.91395,4012
2.91657,5459
2.91917,4655
2.92177,5351
2.92438,4542
2.92698,4819
2.92960,5018
2.93220,4967
2.93482,4231
2.93742,4933
2.94002,4742
2.94263,5284
2.94523,4826
2.94785,4786
2.95045,4203
2.95305,4745
2.95567,5107
2.95827,5253
2.96088,5583
2.96348,3390
2.96608,4987
2.96870,5255
2.97130,5769
2.97392,5409
2.97652,5486
2.97912,5539
2.98173,5511
2.98433,4474
2.98695,4776
2.98955,4443
2.99215,3888
2.99477,4805
2.99737,4928
2.99998,5266
3.00258,5207
3.00518,4196
3.00780,4399
3.01040,4203
3.01302,4975
3.01562,4407
3.01823,5721
3.02083,4088
3.02343,5312
3.02605,5194
3.02865,4180
3.03127,3501
3.03387,5122
3.03647,4557
3.03908,3912
3.04168,4815
3.04430,4440
3.04690,4050
3.04950,5285
3.05212,4860
3.05472,4946
3.05733,4095
3.05993,4522
3.06253,4673
3.06515,4545
3.06775,4584
3.07037,3754
3.07297,4928
3.07557,4099
3.07818,4146
3.08078,4236
3.08340,4118
3.08600,5645
3.08860,4559
3.09122,4028
3.09382,4774
3.09643,5106
3.09903,5646
3.10165,4972
3.10425,5245
3.10685,5206
3.10947,5998
3.11207,5192
3.11468,5612
3.11728,9080
3.11988,13128
3.12250,16754
3.12510,21746
3.12772,21076
3.13032,24739
3.13292,23895
3.13553,21993
3.13813,22568
3.14075,18580
3.14335,19386
3.14595,15958
3.14857,15832
3.15117,16582
3.15378,14851
3.15638,13690
3.15898,12169
3.16160,11063
3.16420,10357
3.16682,9845
3.16942,9917
3.17202,9738
3.17463,9741
3.17723,10562
3.17985,10217
3.18245,8862
3.18507,9007
3.18767,7499
3.19027,9596
3.19288,8645
3.19548,8808
3.19810,8190
3.20070,7010
3.20330,6893
3.20592,9262
3.20852,7257
3.21113,6579
3.21373,8320
3.21633,6794
3.21895,6884
3.22155,7308
3.22417,6444
3.22677,6805
3.22937,6718
3.23198,7393
3.23458,6859
3.23720,6491
3.23980,5476
3.24240,5994
3.24502,5713
3.24762,5428
3.25023,7291
3.25283,6852
3.25543,5974
3.25805,6867
3.26065,6238
3.26327,6596
3.26587,5748
3.26848,5798
3.27108,6492
3.27368,6595
3.27630,6583
3.27890,6434
3.28152,6552
3.28412,5746
3.28672,6314
3.28933,6494
3.29193,7303
3.29455,5948
3.29715,7364
3.29975,5331
3.30237,5446
3.30497,5689
3.30758,6120
3.31018,4825
3.31278,5529
3.31540,6081
3.31800,5929
3.32062,5670
3.32322,5889
3.32582,4912
3.32843,6393
3.33103,6047
3.33365,6822
3.33625,5705
3.33885,4597
3.34147,4385
3.34407,5517
3.34668,5554
3.34928,5039
3.35190,4915
3.35450,5794
3.35710,5054
3.35972,6651
3.36232,5365
3.36493,5069
3.36753,5655
3.37013,6364
3.37275,5928
3.37535,6640
3.37797,4289
3.38057,4779
3.38317,6531
3.38578,4351
3.38838,4856
3.39100,5656
3.39360,7227
3.39620,9369
3.39882,9447
3.40142,9849
3.40403,9173
3.40663,9042
3.40923,7433
3.41185,8331
3.41445,8516
3.41707,8585
3.41967,7599
3.42227,7781
3.42488,7639
3.42748,6575
3.43010,6731
3.43270,6604
3.43532,5680
3.43792,5417
3.44052,5708
3.44313,5885
3.44573,4607
3.44835,6035
3.45095,5378
3.45355,6149
3.45617,5841
3.45877,5502
3.46138,4656
3.46398,5295
3.46658,5530
3.46920,5833
3.47180,6074
3.47442,5811
3.47702,5497
3.47962,5251
3.48223,5013
3.48483,6351
3.48745,5558
3.49005,5273
3.49265,5773
3.49527,5345
3.49787,6148
3.50048,5739
3.50308,5887
3.50568,7882
3.50830,7892
3.51090,14702
3.51352,25733
3.51612,49503
3.51873,74569
3.52133,81004
3.52393,81378
3.52655,61794
3.52915,46422
3.53177,31113
3.53437,22617
3.53697,20669
3.53958,16316
3.54218,15787
3.54480,14806
3.54740,11764
3.55000,12815
3.55262,13236
3.55522,11491
3.55783,12241
3.56043,12869
3.56303,11583
3.56565,11155
3.56825,10020
3.57087,11040
3.57347,10824
3.57607,11005
3.57868,12652
3.58128,9073
3.58390,10289
3.58650,11493
3.58910,10519
3.59172,8774
3.59432,11097
3.59693,11562
3.59953,9132
3.60215,9706
3.60475,10974
3.60735,11117
3.60997,10294
3.61257,9838
3.61518,9377
3.61778,10682
3.62038,10302
3.62300,9554
3.62560,8831
3.62822,10301
3.63082,10594
3.63342,10580
3.63603,11884
3.63863,11088
3.64125,11898
3.64385,13733
3.64645,13441
3.64907,11570
3.65167,9824
3.65428,11394
3.65688,9674
3.65948,10526
3.66210,10912
3.66470,10277
3.66732,10698
3.66992,9762
3.67252,9387
3.67513,9103
3.67773,9857
3.68035,9530
3.68295,9797
3.68557,9563
3.68817,10295
3.69077,9934
3.69338,10200
3.69598,10171
3.69860,10451
3.70120,10407
3.70380,8209
3.70642,10748
3.70902,10325
3.71163,9984
3.71423,9933
3.71683,9198
3.71945,8765
3.72205,10412
3.72467,9409
3.72727,10810
3.72987,9702
3.73248,9471
3.73508,9546
3.73770,8929
3.74030,8760
3.74290,11082
3.74552,11425
3.74812,8540
3.75073,9080
3.75333,9771
3.75593,9290
3.75855,10680
3.76115,8738
3.76377,8935
3.76637,10059
3.76898,9226
3.77158,10929
3.77418,9570
3.77680,8792
3.77940,8853
3.78202,7991
3.78462,9099
3.78722,9500
3.78983,8988
3.79243,8883
3.79505,9472
3.79765,9374
3.80025,7858
3.80287,9068
3.80547,9966
3.80808,9292
3.81068,9018
3.81328,8990
3.81590,9176
3.81850,9219
3.82112,10030
3.82372,8863
3.82632,9546
3.82893,10035
3.83153,7514
3.83415,8473
3.83675,9230
3.83935,8847
3.84197,8049
3.84457,9025
3.84718,9225
3.84978,9147
3.85240,9113
3.85500,8181
3.85760,7944
3.86022,7473
3.86282,7583
3.86543,8601
3.86803,7790
3.87063,9331
3.87325,8693
3.87585,9025
3.87847,8892
3.88107,8004
3.88367,6867
3.88628,8614
3.88888,8482
3.89150,8480
3.89410,8776
3.89670,10768
3.89932,9867
3.90192,8467
3.90453,9636
3.90713,7738
3.90973,7764
3.91235,9309
3.91495,9112
3.91757,8122
3.92017,9192
3.92277,10832
3.92538,8828
3.92798,10898
3.93060,11761
3.93320,14495
3.93582,18239
3.93842,18602
3.94102,18274
3.94363,18585
3.94623,15820
3.94885,14061
3.95145,10955
3.95405,10390
3.95667,10790
3.95927,10726
3.96188,9946
3.96448,10194
3.96708,8858
3.96970,10436
3.97230,10190
3.97492,9227
3.97752,10451
3.98012,9001
3.98273,9833
3.98533,10684
3.98795,9837
3.99055,10480
3.99315,9314
3.99577,9152
3.99837,7702
4.00098,8981
4.00358,8748
4.00618,10403
4.00880,9972
4.01140,10299
4.01402,8594
4.01662,8783
4.01923,9013
4.02183,8909
4.02443,6887
4.02705,10197
4.02965,9548
4.03227,8790
4.03487,8455
4.03747,8081
4.04008,9100
4.04268,10956
4.04530,8343
4.04790,9970
4.05050,9970
4.05312,8268
4.05572,7685
4.05833,9423
4.06093,9106
4.06353,9791
4.06615,11192
4.06875,9437
4.07137,9774
4.07397,10102
4.07657,9080
4.07918,10137
4.08178,8616
4.08440,8379
4.08700,9891
4.08960,8700
4.09222,10102
4.09482,7340
4.09743,9024
4.10003,8487
4.10265,8615
4.10525,8638
4.10785,8610
4.11047,9083
4.11307,9078
4.11568,7599
4.11828,8679
4.12088,8578
4.12350,8301
4.12610,8846
4.12872,9208
4.13132,7258
4.13392,7395
4.13653,8955
4.13913,9197
4.14175,9753
4.14435,9968
4.14695,7851
4.14957,7920
4.15217,8608
4.15478,8081
4.15738,8254
4.15998,8204
4.16260,9967
4.16520,9275
4.16782,8779
4.17042,7896
4.17302,8540
4.17563,7960
4.17823,7986
4.18085,9470
4.18345,8689
4.18607,7891
4.18867,8740
4.19127,8631
4.19388,8193
4.19648,9054
4.19910,8320
4.20170,10137
4.20430,8798
4.20692,8989
4.20952,8962
4.21213,7938
4.21473,8181
4.21733,8946
4.21995,6611
4.22255,9613
4.22517,8629
4.22777,8355
4.23037,8383
4.23298,8431
4.23558,9640
4.23820,8470
4.24080,8336
4.24340,8855
4.24602,8380
4.24862,7926
4.25123,8060
4.25383,9543
4.25643,9411
4.25905,8353
4.26165,8375
4.26427,8382
4.26687,8649
4.26948,10355
4.27208,7954
4.27468,7972
4.27730,9486
4.27990,8492
4.28252,7531
4.28512,8805
4.28772,9171
4.29033,9345
4.29293,9444
4.29555,7135
4.29815,8952
4.30075,7992
4.30337,8826
4.30597,9216
4.30858,8352
4.31118,7704
4.31378,9299
4.31640,8607
4.31900,8263
4.32162,8385
4.32422,9649
4.32682,8406
4.32943,8242
4.33203,9341
4.33465,7619
4.33725,7315
4.33985,7729
4.34247,7468
4.34507,8732
4.34768,7629
4.35028,7446
4.35290,9574
4.35550,9503
4.35810,7569
4.36072,9640
4.36332,8410
4.36593,8775
4.36853,7070
4.37113,9080
4.37375,8021
4.37635,8956
4.37897,7236
4.38157,8508
4.38417,9426
4.38678,8246
4.38938,8245
4.39200,8030
4.39460,8891
4.39720,8338
4.39982,9164
4.40242,9866
4.40503,9028
4.40763,8737
4.41023,8690
4.41285,9906
4.41545,8107
4.41807,8902
4.42067,9609
4.42327,9125
4.42588,7218
4.42848,8654
4.43110,7865
4.43370,7881
4.43632,8102
4.43892,9901
4.44152,9295
4.44413,9145
4.44673,8837
4.44935,7884
4.45195,8196
4.45455,7592
4.45717,7582
4.45977,7933
4.46238,9251
4.46498,9084
4.46758,8781
4.47020,9130
4.47280,8873
4.47542,7568
4.47802,7516
4.48062,7673
4.48323,7803
4.48583,7256
4.48845,7862
4.49105,8477
4.49365,8245
4.49627,7918
4.49887,8014
4.50148,9192
4.50408,9022
4.50668,8764
4.50930,7475
4.51190,7956
4.51452,8744
4.51712,9309
4.51973,8531
4.52233,8244
4.52493,8141
4.52755,8212
4.53015,8475
4.53277,8075
4.53537,8137
4.53797,8405
4.54058,8688
4.54318,8396
4.54580,9508
4.54840,8814
4.55100,8183
4.55362,7747
4.55622,8743
4.55883,9113
4.56143,7304
4.56403,8915
4.56665,9729
4.56925,8148
4.57187,8839
4.57447,8336
4.57707,8700
4.57968,7247
4.58228,9116
4.58490,9171
4.58750,6772
4.59010,7823
4.59272,9994
4.59532,8193
4.59793,8511
4.60053,7692
4.60315,8656
4.60575,10984
4.60835,9394
4.61097,7711
4.61357,7987
4.61618,8925
4.61878,9318
4.62138,9178
4.62400,8061
4.62660,7882
4.62922,7433
4.63182,8646
4.63442,8020
4.63703,8033
4.63963,8894
4.64225,9024
4.64485,7538
4.64745,9398
4.65007,9181
4.65267,7839
4.65528,9534
4.65788,8199
4.66048,8275
4.66310,9572
4.66570,10086
4.66832,7957
4.67092,7671
4.67352,8916
4.67613,8207
4.67873,8499
4.68135,8498
4.68395,8371
4.68657,6992
4.68917,9178
4.69177,8034
4.69438,6905
4.69698,9185
4.69960,7929
4.70220,7662
4.70480,9459
4.70742,10973
4.71002,7787
4.71263,8981
4.71523,9633
4.71783,8849
4.72045,8744
4.72305,8320
4.72567,8013
4.72827,7988
4.73087,8668
4.73348,9824
4.73608,9312
4.73870,8672
4.74130,7858
4.74390,8459
4.74652,7093
4.74912,8754
4.75173,8495
4.75433,7526
4.75693,7905
4.75955,7386
4.76215,8463
4.76477,8837
4.76737,8355
4.76998,8305
4.77258,8871
4.77518,7191
4.77780,8691
4.78040,9452
4.78302,8489
4.78562,7570
4.78822,7068
4.79083,8785
4.79343,8192
4.79605,8429
4.79865,7963
4.80125,8611
4.80387,9959
4.80647,9351
4.80908,9297
4.81168,8642
4.81428,9229
4.81690,7218
4.81950,9897
4.82212,7622
4.82472,7960
4.82732,8077
4.82993,8228
4.83253,8254
4.83515,7843
4.83775,9124
4.84035,7950
4.84297,7887
4.84557,7866
4.84818,7847
4.85078,10331
4.85340,8548
4.85600,8335
4.85860,9905
4.86122,7780
4.86382,9258
4.86643,9495
4.86903,9304
4.87163,9016
4.87425,10315
4.87685,8416
4.87947,7617
4.88207,9646
4.88467,9419
4.88728,8099
4.88988,9359
4.89250,8259
4.89510,9637
4.89770,8096
4.90032,9666
4.90292,9329
4.90553,9182
4.90813,8731
4.91073,8879
4.91335,7413
4.91595,7907
4.91857,8243
4.92117,8739
4.92377,8854
4.92638,8901
4.92898,8533
4.93160,9849
4.93420,6987
4.93682,9597
4.93942,8897
4.94202,7841
4.94463,9201
4.94723,8116
4.94985,8703
4.95245,9347
4.95505,7579
4.95767,8852
4.96027,8726
4.96288,8746
4.96548,9514
4.96808,8568
4.97070,10005
4.97330,8831
4.97592,10254
4.97852,9008
4.98112,8393
4.98373,8348
4.98633,8536
4.98895,8592
4.99155,8272
4.99415,8101
4.99677,8944
4.99937,8419
5.00198,8939
5.00458,10083
5.00718,9061
5.00980,8717
5.01240,9525
5.01502,8462
5.01762,8370
5.02023,9057
5.02283,9879
5.02543,8835
5.02805,8979
5.03065,8399
5.03327,8267
5.03587,8670
5.03847,9281
5.04108,8611
5.04368,9133
5.04630,9205
5.04890,8275
5.05150,9235
5.05412,8366
5.05672,10211
5.05933,8644
5.06193,8561
5.06453,9656
5.06715,7997
5.06975,8207
5.07237,9248
5.07497,7812
5.07757,7580
5.08018,9251
5.08278,9700
5.08540,8350
5.08800,7876
5.09060,8262
5.09322,10122
5.09582,9005
5.09843,9642
5.10103,9290
5.10365,9000
5.10625,8969
5.10885,8937
5.11147,10151
5.11407,8607
5.11668,8547
5.11928,8098
5.12188,8777
5.12450,8713
5.12710,8367
5.12972,8050
5.13232,9233
5.13492,7760
5.13753,8632
5.14013,9660
5.14275,9007
5.14535,9428
5.14795,8962
5.15057,9273
5.15317,9011
5.15578,8099
5.15838,8598
5.16098,8681
5.16360,9770
5.16620,8991
5.16882,7910
5.17142,9054
5.17402,8553
5.17663,9116
5.17923,10031
5.18185,8426
5.18445,9960
5.18707,9480
5.18967,9999
5.19227,9214
5.19488,8530
5.19748,8670
5.20010,8073
5.20270,8155
5.20530,9280
5.20792,8731
5.21052,8631
5.21313,7584
5.21573,9065
5.21833,9394
5.22095,8332
5.22355,7439
5.22617,8206
5.22877,8625
5.23137,8982
5.23398,8895
5.23658,8037
5.23920,8892
5.24180,8679
5.24440,9251
5.24702,8978
5.24962,7950
5.25223,9304
5.25483,9298
5.25743,7113
5.26005,8588
5.26265,9285
5.26527,9877
5.26787,8280
5.27048,9776
5.27308,8956
5.27568,9414
5.27830,7565
5.28090,9348
5.28352,8098
5.28612,8369
5.28872,8697
5.29133,9127
5.29393,9836
5.29655,8103
5.29915,9366
5.30175,8921
5.30437,8544
5.30697,8660
5.30958,8371
5.31218,9663
5.31478,9697
5.31740,7482
5.32000,7575
5.32262,8485
5.32522,8686
5.32782,9676
5.33043,9357
5.33303,9024
5.33565,9010
5.33825,9828
5.34085,9436
5.34347,9141
5.34607,8933
5.34868,8578
5.35128,9019
5.35390,9540
5.35650,8537
5.35910,8700
5.36172,9724
5.36432,9721
5.36693,9094
5.36953,8959
5.37213,9624
5.37475,8559
5.37735,9848
5.37997,8527
5.38257,8841
5.38517,8662
5.38778,8910
5.39038,9657
5.39300,7418
5.39560,9843
5.39820,8625
5.40082,9159
5.40342,10194
5.40603,8203
5.40863,9291
5.41123,8262
5.41385,8577
5.41645,8847
5.41907,9201
5.42167,9940
5.42427,8474
5.42688,8049
5.42948,9843
5.43210,8274
5.43470,9440
5.43732,9673
5.43992,9465
5.44252,10081
5.44513,9189
5.44773,10065
5.45035,10657
5.45295,12373
5.45555,13787
5.45817,12136
5.46077,13572
5.46338,12596
5.46598,13155
5.46858,12636
5.47120,10295
5.47380,10298
5.47642,9623
5.47902,9944
5.48162,8644
5.48423,10881
5.48683,8626
5.48945,10618
5.49205,11054
5.49465,9009
5.49727,8779
5.49987,9853
5.50248,9078
5.50508,10217
5.50768,7966
5.51030,10006
5.51290,10053
5.51552,9656
5.51812,10965
5.52073,10033
5.52333,9737
5.52593,9749
5.52855,7872
5.53115,9223
5.53377,8808
5.53637,10771
5.53897,9805
5.54158,9599
5.54418,9670
5.54680,11054
5.54940,9611
5.55200,9742
5.55462,8376
5.55722,9325
5.55983,9494
5.56243,10079
5.56503,9685
5.56765,9305
5.57025,9051
5.57287,10726
5.57547,10082
5.57807,10211
5.58068,11029
5.58328,10669
5.58590,10005
5.58850,8794
5.59110,10880
5.59372,9184
5.59632,9214
5.59893,9990
5.60153,10077
5.60415,11150
5.60675,10253
5.60935,9898
5.61197,9289
5.61457,10180
5.61718,8711
5.61978,9633
5.62238,10107
5.62500,8397
5.62760,10503
5.63022,9366
5.63282,8925
5.63542,9339
5.63803,10788
5.64063,10030
5.64325,10397
5.64585,10479
5.64845,9528
5.65107,9869
5.65367,8731
5.65628,9299
5.65888,8919
5.66148,10147
5.66410,9566
5.66670,8691
5.66932,9211
5.67192,9727
5.67452,9536
5.67713,9392
5.67973,8692
5.68235,10257
5.68495,9653
5.68757,8167
5.69017,9588
5.69277,9291
5.69538,8480
5.69798,9703
5.70060,11011
5.70320,12742
5.70580,10426
5.70842,10835
5.71102,10916
5.71363,10186
5.71623,9035
5.71883,9568
5.72145,10522
5.72405,10000
5.72667,8977
5.72927,9913
5.73187,8276
5.73448,9497
5.73708,9393
5.73970,9045
5.74230,8228
5.74490,9856
5.74752,9399
5.75012,8988
5.75273,9449
5.75533,10014
5.75793,9626
5.76055,9522
5.76315,9212
5.76577,9265
5.76837,10028
5.77098,9010
5.77358,11038
5.77618,8874
5.77880,9615
5.78140,9981
5.78402,9307
5.78662,11087
5.78922,9835
5.79183,9246
5.79443,10289
5.79705,10985
5.79965,10584
5.80225,10147
5.80487,9845
5.80747,9529
5.81008,11796
5.81268,16025
5.81528,25840
5.81790,39268
5.82050,49357
5.82312,52472
5.82572,47295
5.82832,34616
5.83093,23180
5.83353,16211
5.83615,14433
5.83875,14961
5.84135,18724
5.84397,22131
5.84657,18522
5.84918,16413
5.85178,11725
5.85440,13212
5.85700,12275
5.85960,12389
5.86222,12067
5.86482,11477
5.86743,11526
5.87003,10453
5.87263,11096
5.87525,10458
5.87785,10585
5.88047,11471
5.88307,10908
5.88567,10776
5.88828,11570
5.89088,10405
5.89350,10248
5.89610,10834
5.89870,11210
5.90132,9819
5.90392,9429
5.90653,10352
5.90913,10331
5.91173,10168
5.91435,11494
5.91695,11026
5.91957,9724
5.92217,11162
5.92477,10523
5.92738,11277
5.92998,13416
5.93260,13113
5.93520,12768
5.93782,14049
5.94042,14465
5.94302,13690
5.94563,15134
5.94823,13694
5.95085,12352
5.95345,11926
5.95605,13564
5.95867,12836
5.96127,14535
5.96388,14298
5.96648,13039
5.96908,12521
5.97170,10198
5.97430,11236
5.97692,12371
5.97952,12865
5.98212,11581
5.98473,12367
5.98733,11986
5.98995,11539
5.99255,12752
5.99515,11865
5.99777,13432
6.00037,12157
6.00298,11574
6.00558,12683
6.00818,11080
6.01080,12225
6.01340,11554
6.01602,12420
6.01862,12034
6.02123,12053
6.02383,13630
6.02643,11256
6.02905,10987
6.03165,12507
6.03427,11646
6.03687,12123
6.03947,12177
6.04208,12879
6.04468,14193
6.04730,17727
6.04990,19833
6.05250,22012
6.05512,25885
6.05772,22497
6.06033,20617
6.06293,18045
6.06553,17640
6.06815,19417
6.07075,16433
6.07337,17087
6.07597,14463
6.07857,15153
6.08118,14081
6.08378,13273
6.08640,13380
6.08900,13943
6.09160,11628
6.09422,12897
6.09682,12640
6.09943,12919
6.10203,13130
6.10465,12673
6.10725,12811
6.10985,12491
6.11247,11590
6.11507,13591
6.11768,13172
6.12028,12203
6.12288,12525
6.12550,13254
6.12810,14178
6.13072,13663
6.13332,15736
6.13592,12977
6.13853,12999
6.14113,12874
6.14375,10309
6.14635,13935
6.14895,12336
6.15157,10915
6.15417,11589
6.15678,12082
6.15938,10631
6.16198,12035
6.16460,12836
6.16720,11473
6.16982,12190
6.17242,14131
6.17502,15973
6.17763,18973
6.18023,17307
6.18285,14134
6.18545,13057
6.18807,13742
6.19067,11013
6.19327,10555
6.19588,12595
6.19848,10626
6.20110,11267
6.20370,10769
6.20630,11215
6.20892,11368
6.21152,10430
6.21413,12242
6.21673,12509
6.21933,10741
6.22195,10804
6.22455,10609
6.22717,12562
6.22977,11253
6.23237,9867
6.23498,11419
6.23758,11409
6.24020,10297
6.24280,11035
6.24540,12648
6.24802,12954
6.25062,12116
6.25323,10869
6.25583,11913
6.25843,11061
6.26105,12166
6.26365,8978
6.26627,12498
6.26887,11193
6.27148,11416
6.27408,12086
6.27668,11288
6.27930,13090
6.28190,13136
6.28452,13287
6.28712,12389
6.28972,13284
6.29233,10706
6.29493,12127
6.29755,11834
6.30015,10309
6.30275,10195
6.30537,11290
6.30797,10978
6.31058,11185
6.31318,11987
6.31578,10857
6.31840,11279
6.32100,10805
6.32362,12494
6.32622,9758
6.32882,10784
6.33143,10768
6.33403,9676
6.33665,10643
6.33925,12025
6.34185,11871
6.34447,12723
6.34707,12501
6.34968,15603
6.35228,10829
6.35490,10947
6.35750,11931
6.36010,12535
6.36272,10613
6.36532,12118
6.36793,10963
6.37053,12361
6.37313,10824
6.37575,11466
6.37835,12006
6.38097,11646
6.38357,12735
6.38617,10600
6.38878,10618
6.39138,11395
6.39400,10314
6.39660,11197
6.39920,11146
6.40182,10607
6.40442,12320
6.40703,13930
6.40963,14455
6.41223,13239
6.41485,11317
6.41745,11578
6.42007,11839
6.42267,12435
6.42527,11546
6.42788,12173
6.43048,12051
6.43310,11971
6.43570,10019
6.43832,11461
6.44092,10883
6.44352,12542
6.44613,10518
6.44873,10874
6.45135,11504
6.45395,10067
6.45655,12629
6.45917,11177
6.46177,10655
6.46438,11544
6.46698,11000
6.46958,11693
6.47220,11665
6.47480,11037
6.47742,11068
6.48002,12862
6.48262,11632
6.48523,13105
6.48783,12649
6.49045,14455
6.49305,13946
6.49565,14050
6.49827,17025
6.50087,19802
6.50348,25765
6.50608,27540
6.50868,29638
6.51130,23361
6.51390,18315
6.51652,14901
6.51912,15831
6.52173,12669
6.52433,14050
6.52693,11783
6.52955,13771
6.53215,12539
6.53477,12183
6.53737,12161
6.53997,12558
6.54258,12463
6.54518,11873
6.54780,10354
6.55040,12485
6.55300,10645
6.55562,12771
6.55822,13233
6.56083,11569
6.56343,12129
6.56603,11604
6.56865,13123
6.57125,12954
6.57387,13368
6.57647,12605
6.57907,12251
6.58168,11681
6.58428,13235
6.58690,19701
6.58950,54446
6.59210,197778
6.59472,758862
6.59732,2533119
6.59993,6236965
6.60253,1.162874E+07
6.60515,1.763878E+07
6.60775,2.313728E+07
6.61035,2.796575E+07
6.61297,3.311337E+07
6.61557,3.673876E+07
6.61818,3.873685E+07
6.62078,3.469585E+07
6.62338,1.881188E+07
6.62600,4950974
6.62860,1134963
6.63122,423572
6.63382,265615
6.63642,187192
6.63903,154067
6.64163,139946
6.64425,117040
6.64685,104997
6.64945,89042
6.65207,81182
6.65467,73653
6.65728,68910
6.65988,66661
6.66248,63878
6.66510,57905
6.66770,55919
6.67032,51711
6.67292,53360
6.67552,47104
6.67813,44428
6.68073,43676
6.68335,43432
6.68595,40986
6.68857,41418
6.69117,38466
6.69377,38486
6.69638,35066
6.69898,33983
6.70160,34914
6.70420,33551
6.70680,35167
6.70942,33086
6.71202,31279
6.71463,31746
6.71723,28505
6.71983,31403
6.72245,26714
6.72505,29260
6.72767,27415
6.73027,26541
6.73287,27026
6.73548,28099
6.73808,27247
6.74070,27330
6.74330,28449
6.74590,25191
6.74852,24717
6.75112,27309
6.75373,24123
6.75633,24051
6.75893,24596
6.76155,23996
6.76415,29387
6.76677,26623
6.76937,29806
6.77198,29196
6.77458,28428
6.77718,28922
6.77980,25768
6.78240,23313
6.78502,23717
6.78762,21768
6.79022,21214
6.79283,21398
6.79543,21925
6.79805,22895
6.80065,20194
6.80325,22112
6.80587,20122
6.80847,23535
6.81108,20855
6.81368,21836
6.81628,19796
6.81890,21989
6.82150,19399
6.82412,19421
6.82672,22047
6.82932,20082
6.83193,19585
6.83453,18442
6.83715,16738
6.83975,18765
6.84235,18939
6.84497,17854
6.84757,19902
6.85018,19868
6.85278,20683
6.85540,22588
6.85800,25429
6.86060,35546
6.86322,48002
6.86582,54759
6.86843,53798
6.87103,50478
6.87363,41255
6.87625,35273
6.87885,30139
6.88147,32102
6.88407,29323
6.88667,25206
6.88928,21986
6.89188,22266
6.89450,19234
6.89710,20196
6.89970,21690
6.90232,22177
6.90492,20561
6.90753,20148
6.91013,21737
6.91273,19765
6.91535,20366
6.91795,19590
6.92057,19320
6.92317,19893
6.92577,19384
6.92838,21915
6.93098,23509
6.93360,24743
6.93620,24993
6.93882,28431
6.94142,30023
6.94402,26788
6.94663,23214
6.94923,21233
6.95185,19041
6.95445,20081
6.95705,21660
6.95967,20868
6.96227,21836
6.96488,20447
6.96748,19960
6.97008,17878
6.97270,19186
6.97530,19176
6.97792,18522
6.98052,17702
6.98312,19181
6.98573,19160
6.98833,18323
6.99095,15691
6.99355,15707
6.99615,17104
6.99877,18726
7.00137,18274
7.00398,18372
7.00658,19853
7.00918,20742
7.01180,19563
7.01440,18442
7.01702,20154
7.01962,17623
7.02223,18831
7.02483,16487
7.02743,18035
7.03005,17788
7.03265,18232
7.03527,18853
7.03787,17499
7.04047,17106
7.04308,18349
7.04568,18064
7.04830,18172
7.05090,19766
7.05350,21059
7.05612,20538
7.05872,19531
7.06133,19119
7.06393,20221
7.06653,17238
7.06915,17355
7.07175,20737
7.07437,19885
7.07697,17326
7.07957,17738
7.08218,17178
7.08478,17871
7.08740,18001
7.09000,18318
7.09260,17045
7.09522,18699
7.09782,16706
7.10043,18215
7.10303,17177
7.10565,18414
7.10825,15272
7.11085,17554
7.11347,18003
7.11607,16547
7.11868,18151
7.12128,16180
7.12388,17638
7.12650,17653
7.12910,17414
7.13172,18608
7.13432,17857
7.13692,17947
7.13953,19122
7.14213,29685
7.14475,48246
7.14735,81928
7.14995,120739
7.15257,142709
7.15517,132602
7.15778,104911
7.16038,70042
7.16298,47656
7.16560,32493
7.16820,29624
7.17082,26978
7.17342,24458
7.17602,23349
7.17863,24877
7.18123,21525
7.18385,22372
7.18645,20866
7.18907,21614
7.19167,19590
7.19427,21930
7.19688,20318
7.19948,19994
7.20210,23140
7.20470,21521
7.20730,22844
7.20992,23757
7.21252,26256
7.21513,27193
7.21773,28804
7.22033,23879
7.22295,22014
7.22555,21998
7.22817,20045
7.23077,21411
7.23337,22135
7.23598,22019
7.23858,21428
7.24120,26036
7.24380,24797
7.24640,22014
7.24902,22753
7.25162,20457
7.25423,20778
7.25683,19522
7.25943,20311
7.26205,17736
7.26465,18983
7.26727,19914
7.26987,20844
7.27248,16678
7.27508,19206
7.27768,18412
7.28030,19411
7.28290,19166
7.28552,18661
7.28812,20803
7.29072,18386
7.29333,19779
7.29593,20894
7.29855,18560
7.30115,18088
7.30375,18902
7.30637,18415
7.30897,19533
7.31158,18642
7.31418,17558
7.31678,21523
7.31940,20072
7.32200,19181
7.32462,19097
7.32722,19065
7.32982,18125
7.33243,18225
7.33503,18843
7.33765,17527
7.34025,19922
7.34285,18093
7.34547,20040
7.34807,18721
7.35068,17355
7.35328,18892
7.35590,19465
7.35850,17300
7.36110,18279
7.36372,18184
7.36632,19958
7.36893,16823
7.37153,19724
7.37413,20858
7.37675,19300
7.37935,17897
7.38197,19317
7.38457,18829
7.38717,20162
7.38978,20059
7.39238,18855
7.39500,18828
7.39760,16793
7.40020,19330
7.40282,21144
7.40542,18011
7.40803,18901
7.41063,19152
7.41323,21669
7.41585,18403
7.41845,19831
7.42107,18860
7.42367,17862
7.42627,17998
7.42888,18888
7.43148,18675
7.43410,18457
7.43670,20905
7.43932,19878
7.44192,18131
7.44452,19586
7.44713,18627
7.44973,18900
7.45235,19918
7.45495,18076
7.45755,19410
7.46017,18337
7.46277,18425
7.46538,18852
7.46798,18896
7.47058,21149
7.47320,19209
7.47580,19316
7.47842,17890
7.48102,18532
7.48362,19813
7.48623,20353
7.48883,21057
7.49145,21058
7.49405,19613
7.49665,17915
7.49927,20589
7.50187,18152
7.50448,17289
7.50708,20865
7.50968,18919
7.51230,19075
7.51490,23986
7.51752,34697
7.52012,58382
7.52273,101317
7.52533,158684
7.52793,214718
7.53055,235800
7.53315,190693
7.53577,130366
7.53837,83878
7.54097,57094
7.54358,42115
7.54618,37059
7.54880,34686
7.55140,32888
7.55400,32183
7.55662,35631
7.55922,36710
7.56183,38990
7.56443,33872
7.56703,34404
7.56965,30497
7.57225,28616
7.57487,28761
7.57747,28569
7.58007,31783
7.58268,33189
7.58528,32154
7.58790,32303
7.59050,28557
7.59312,28497
7.59572,25418
7.59832,25697
7.60093,24893
7.60353,22889
7.60615,22872
7.60875,23298
7.61135,22861
7.61397,20966
7.61657,23794
7.61918,24046
7.62178,24622
7.62438,23782
7.62700,27036
7.62960,24527
7.63222,24716
7.63482,24251
7.63742,23628
7.64003,23258
7.64263,24115
7.64525,21964
7.64785,24393
7.65045,21160
7.65307,23433
7.65567,21838
7.65828,19320
7.66088,22077
7.66348,24040
7.66610,23807
7.66870,23832
7.67132,27157
7.67392,23857
7.67653,23300
7.67913,23636
7.68173,25081
7.68435,24943
7.68695,23058
7.68957,24810
7.69217,24128
7.69477,21165
7.69738,20704
7.69998,26042
7.70260,21022
7.70520,23826
7.70780,21806
7.71042,21649
7.71302,23267
7.71563,21534
7.71823,22037
7.72083,23405
7.72345,22392
7.72605,21177
7.72867,23576
7.73127,23121
7.73387,21193
7.73648,22635
7.73908,22572
7.74170,23496
7.74430,23276
7.74690,25060
7.74952,22577
7.75212,23447
7.75473,25464
7.75733,21833
7.75995,24272
7.76255,23042
7.76515,26846
7.76777,24759
7.77037,22798
7.77298,22622
7.77558,23978
7.77818,23609
7.78080,23590
7.78340,23127
7.78602,23889
7.78862,23985
7.79122,23534
7.79383,23665
7.79643,22821
7.79905,24353
7.80165,24050
7.80425,22268
7.80687,24021
7.80947,24283
7.81208,25977
7.81468,23068
7.81728,23611
7.81990,24335
7.82250,27584
7.82512,27209
7.82772,27962
7.83032,30810
7.83293,31354
7.83553,29345
7.83815,28147
7.84075,25339
7.84337,27588
7.84597,24458
7.84857,25875
7.85118,24414
7.85378,22659
7.85640,23854
7.85900,24703
7.86160,24155
7.86422,24879
7.86682,24729
7.86943,25559
7.87203,23318
7.87463,23762
7.87725,26209
7.87985,26867
7.88247,24303
7.88507,26483
7.88767,24447
7.89028,25470
7.89288,23114
7.89550,26861
7.89810,25966
7.90070,28266
7.90332,29448
7.90592,29319
7.90853,32381
7.91113,33314
7.91373,32074
7.91635,27013
7.91895,26566
7.92157,29010
7.92417,25579
7.92678,24947
7.92938,25905
7.93198,25574
7.93460,27452
7.93720,27362
7.93982,24724
7.94242,25572
7.94502,26164
7.94763,28634
7.95023,24832
7.95285,25765
7.95545,25463
7.95805,26394
7.96067,26593
7.96327,26315
7.96588,27440
7.96848,28628
7.97108,25743
7.97370,27118
7.97630,24617
7.97892,29628
7.98152,28296
7.98412,26554
7.98673,27414
7.98933,28924
7.99195,27739
7.99455,30243
7.99715,26108
7.99977,26538
8.00237,26502
8.00498,27260
8.00758,29447
8.01020,27117
8.01280,29908
8.01540,27408
8.01802,26870
8.02062,24402
8.02323,28310
8.02583,27752
8.02843,29192
8.03105,26842
8.03365,28087
8.03627,26423
8.03887,27755
8.04147,28184
8.04408,30076
8.04668,28787
8.04930,29027
8.05190,29155
8.05450,31683
8.05712,49915
8.05972,137260
8.06233,484246
8.06493,1505457
8.06753,4101922
8.07015,8400086
8.07275,1.369898E+07
8.07537,1.813726E+07
8.07797,2.028304E+07
8.08057,1.853945E+07
8.08318,1.261555E+07
8.08578,6492991
8.08840,3158545
8.09100,1807513
8.09362,1206724
8.09622,895553
8.09882,704288
8.10143,551272
8.10403,480967
8.10665,408019
8.10925,345574
8.11185,303096
8.11447,268046
8.11707,243882
8.11968,228777
8.12228,206303
8.12488,185890
8.12750,175710
8.13010,160876
8.13272,145160
8.13532,140538
8.13792,134071
8.14053,125268
8.14313,113579
8.14575,108123
8.14835,103659
8.15095,99673
8.15357,91703
8.15617,90689
8.15878,87905
8.16138,80833
8.16398,83085
8.16660,76991
8.16920,77777
8.17182,70556
8.17442,75386
8.17703,75728
8.17963,82484
8.18223,76096
8.18485,80201
8.18745,70875
8.19007,64760
8.19267,62756
8.19527,59856
8.19788,58812
8.20048,56292
8.20310,58153
8.20570,61973
8.20830,58406
8.21092,58272
8.21352,59517
8.21613,56214
8.21873,54495
8.22133,53595
8.22395,51362
8.22655,48834
8.22917,49025
8.23177,47345
8.23437,52217
8.23698,49649
8.23958,47864
8.24220,46715
8.24480,46188
8.24740,45458
8.25002,47049
8.25262,45343
8.25523,44696
8.25783,44892
8.26045,42196
8.26305,41999
8.26565,45396
8.26827,46667
8.27087,44577
8.27348,41275
8.27608,44790
8.27868,43910
8.28130,43091
8.28390,41908
8.28652,46113
8.28912,42002
8.29172,40386
8.29433,42496
8.29693,44091
8.29955,47308
8.30215,45612
8.30475,46698
8.30737,42252
8.30997,44489
8.31258,45084
8.31518,45312
8.31778,41895
8.32040,41766
8.32300,43620
8.32562,41793
8.32822,39912
8.33082,42554
8.33343,43342
8.33603,40648
8.33865,41925
8.34125,43717
8.34387,42616
8.34647,44148
8.34907,43998
8.35168,43497
8.35428,45583
8.35690,42432
8.35950,43772
8.36210,44300
8.36472,44347
8.36732,44819
8.36993,42353
8.37253,41709
8.37513,43511
8.37775,43301
8.38035,41272
8.38297,43571
8.38557,41932
8.38817,42062
8.39078,44904
8.39338,43711
8.39600,44579
8.39860,47139
8.40120,46631
8.40382,45319
8.40642,45350
8.40903,45071
8.41163,45127
8.41423,45321
8.41685,44378
8.41945,45074
8.42207,46060
8.42467,47448
8.42728,49388
8.42988,49210
8.43248,49049
8.43510,48154
8.43770,45533
8.44032,46461
8.44292,45229
8.44552,46000
8.44813,46678
8.45073,48063
8.45335,48370
8.45595,46785
8.45855,48980
8.46117,46816
8.46377,49153
8.46638,47266
8.46898,49385
8.47158,54186
8.47420,53591
8.47680,56717
8.47942,54974
8.48202,54595
8.48462,56778
8.48723,54588
8.48983,51394
8.49245,52702
8.49505,50597
8.49765,53249
8.50027,55775
8.50287,50039
8.50548,58354
8.50808,64453
8.51070,70855
8.51330,70242
8.51590,63404
8.51852,61362
8.52112,56485
8.52373,54828
8.52633,56320
8.52893,56575
8.53155,52897
8.53415,54255
8.53677,52808
8.53937,55790
8.54197,55243
8.54458,56571
8.54718,55077
8.54980,55833
8.55240,57321
8.55500,58197
8.55762,56480
8.56022,58197
8.56283,60604
8.56543,59843
8.56803,56202
8.57065,57460
8.57325,54248
8.57587,56927
8.57847,58566
8.58107,57354
8.58368,59815
8.58628,59819
8.58890,58417
8.59150,58356
8.59412,60235
8.59672,60385
8.59932,60456
8.60193,59359
8.60453,61691
8.60715,58060
8.60975,59621
8.61235,60566
8.61497,61553
8.61757,60362
8.62018,65463
8.62278,60266
8.62538,62383
8.62800,65039
8.63060,63937
8.63322,60657
8.63582,64947
8.63842,64918
8.64103,65693
8.64363,67119
8.64625,68640
8.64885,64051
8.65145,67802
8.65407,66098
8.65667,71591
8.65928,68425
8.66188,70418
8.66448,69553
8.66710,70130
8.66970,69643
8.67232,67510
8.67492,66957
8.67753,72376
8.68013,72916
8.68273,72984
8.68535,72410
8.68795,73380
8.69057,72270
8.69317,75210
8.69577,76027
8.69838,78426
8.70098,77400
8.70360,73439
8.70620,79268
8.70880,86978
8.71142,86081
8.71402,83207
8.71663,87767
8.71923,87592
8.72183,81270
8.72445,88511
8.72705,87845
8.72967,85451
8.73227,86172
8.73487,83025
8.73748,81954
8.74008,82962
8.74270,80483
8.74530,80553
8.74790,75411
8.75052,81532
8.75312,81498
8.75573,84688
8.75833,81288
8.76095,86515
8.76355,79696
8.76615,84335
8.76877,85363
8.77137,83127
8.77398,83277
8.77658,81302
8.77918,85567
8.78180,79178
8.78440,83839
8.78702,86000
8.78962,82043
8.79222,82452
8.79483,85681
8.79743,84638
8.80005,86001
8.80265,84835
8.80525,84881
8.80787,80219
8.81047,84914
8.81308,88445
8.81568,87405
8.81828,87946
8.82090,88812
8.82350,90778
8.82612,88734
8.82872,88389
8.83132,92498
8.83393,88078
8.83653,89556
8.83915,93143
8.84175,88978
8.84437,89855
8.84697,90346
8.84957,92630
8.85218,93703
8.85478,90178
8.85740,91796
8.86000,93675
8.86260,90267
8.86522,94183
8.86782,89108
8.87043,90881
8.87303,91693
8.87563,93302
8.87825,91601
8.88085,94201
8.88347,92268
8.88607,93095
8.88867,95176
8.89128,94014
8.89388,89451
8.89650,92787
8.89910,98642
8.90170,95340
8.90432,95330
8.90692,97846
8.90953,94111
8.91213,96224
8.91473,97921
8.91735,96109
8.91995,94871
8.92257,101496
8.92517,100396
8.92778,98114
8.93038,101121
8.93298,101296
8.93560,103266
8.93820,100084
8.94082,103960
8.94342,95143
8.94602,95355
8.94863,101861
8.95123,101773
8.95385,97200
8.95645,104746
8.95905,103704
8.96167,101480
8.96427,98552
8.96688,99166
8.96948,104352
8.97208,102699
8.97470,98495
8.97730,101377
8.97992,101282
8.98252,99826
8.98512,103106
8.98773,101872
8.99033,101339
8.99295,103658
8.99555,100778
8.99815,98321
9.00077,99426
9.00337,101608
9.00598,104314
9.00858,102252
9.01120,104613
9.01380,99522
9.01640,102513
9.01902,105296
9.02162,103423
9.02423,101855
9.02683,105580
9.02943,101107
9.03205,101417
9.03465,101183
9.03727,100498
9.03987,104642
9.04247,102025
9.04508,104523
9.04768,104583
9.05030,105758
9.05290,101215
9.05550,105458
9.05812,103371
9.06072,101102
9.06333,102504
9.06593,105254
9.06853,103517
9.07115,103147
9.07375,104399
9.07637,102146
9.07897,105088
9.08157,105321
9.08418,103475
9.08678,104429
9.08940,101338
9.09200,102897
9.09462,104342
9.09722,99455
9.09982,103551
9.10243,103405
9.10503,105730
9.10765,104955
9.11025,106928
9.11285,103701
9.11547,108034
9.11807,107380
9.12068,105272
9.12328,109658
9.12588,109951
9.12850,107799
9.13110,114188
9.13372,110049
9.13632,108978
9.13892,103843
9.14153,105206
9.14413,106961
9.14675,108371
9.14935,108382
9.15195,106013
9.15457,99756
9.15717,106986
9.15978,104462
9.16238,107151
9.16498,103361
9.16760,105628
9.17020,107662
9.17282,107508
9.17542,106921
9.17803,107950
9.18063,108275
9.18323,105524
9.18585,108120
9.18845,108039
9.19107,107728
9.19367,111355
9.19627,114135
9.19888,110588
9.20148,109559
9.20410,113288
9.20670,109413
9.20930,104866
9.21192,107466
9.21452,112797
9.21713,106976
9.21973,107913
9.22233,109758
9.22495,106640
9.22755,109836
9.23017,105643
9.23277,102561
9.23537,109668
9.23798,108792
9.24058,109161
9.24320,106974
9.24580,108199
9.24840,111763
9.25102,108233
9.25362,107273
9.25623,106241
9.25883,108148
9.26145,106202
9.26405,105088
9.26665,103076
9.26927,111848
9.27187,107770
9.27448,109392
9.27708,109562
9.27968,106376
9.28230,108606
9.28490,102739
9.28752,107747
9.29012,105271
9.29272,104107
9.29533,105653
9.29793,105740
9.30055,102868
9.30315,110485
9.30575,106670
9.30837,107366
9.31097,107274
9.31358,107792
9.31618,106172
9.31878,102801
9.32140,103757
9.32400,106611
9.32662,106821
9.32922,107032
9.33182,108308
9.33443,106484
9.33703,107336
9.33965,109718
9.34225,101865
9.34487,104202
9.34747,104514
9.35007,108448
9.35268,108198
9.35528,109021
9.35790,111120
9.36050,108179
9.36310,105353
9.36572,110300
9.36832,105546
9.37093,108125
9.37353,110769
9.37613,110816
9.37875,111809
9.38135,107692
9.38397,104748
9.38657,108043
9.38917,105690
9.39178,106592
9.39438,103555
9.39700,106456
9.39960,106171
9.40220,108289
9.40482,102590
9.40742,102973
9.41003,107467
9.41263,109346
9.41523,106696
9.41785,108158
9.42045,107409
9.42307,109099
9.42567,107909
9.42828,109159
9.43088,105610
9.43348,106070
9.43610,106951
9.43870,108863
9.44132,109413
9.44392,105982
9.44652,109006
9.44913,106607
9.45173,108777
9.45435,105440
9.45695,103917
9.45955,109276
9.46217,109657
9.46477,107025
9.46738,110136
9.46998,109834
9.47258,113462
9.47520,109465
9.47780,107119
9.48042,108730
9.48302,107015
9.48562,108801
9.48823,102627
9.49083,107445
9.49345,108985
9.49605,103971
9.49865,109948
9.50127,107763
9.50387,109324
9.50648,104442
9.50908,106802
9.51170,109512
9.51430,110032
9.51690,106365
9.51952,106138
9.52212,108001
9.52473,106725
9.52733,105227
9.52993,107577
9.53255,102912
9.53515,112329
9.53777,110405
9.54037,108078
9.54297,107838
9.54558,105601
9.54818,107401
9.55080,107290
9.55340,106431
9.55600,106131
9.55862,109511
9.56122,102662
9.56383,102095
9.56643,105134
9.56903,103616
9.57165,105920
9.57425,103945
9.57687,104800
9.57947,102960
9.58207,109708
9.58468,102868
9.58728,102849
9.58990,105076
9.59250,109519
9.59512,110075
9.59772,107843
9.60032,103928
9.60293,105752
9.60553,106103
9.60815,107779
9.61075,104450
9.61335,108748
9.61597,105295
9.61857,106689
9.62118,102947
9.62378,104932
9.62638,105849
9.62900,109022
9.63160,108146
9.63422,107426
9.63682,108864
9.63942,109194
9.64203,104644
9.64463,105878
9.64725,104274
9.64985,106969
9.65245,106838
9.65507,107401
9.65767,110286
9.66028,107460
9.66288,104609
9.66548,106802
9.66810,110652
9.67070,108003
9.67332,103905
9.67592,105535
9.67853,105402
9.68113,108648
9.68373,104108
9.68635,108795
9.68895,107116
9.69157,107253
9.69417,103996
9.69677,104993
9.69938,107167
9.70198,107606
9.70460,109440
9.70720,106415
9.70980,108886
9.71242,107764
9.71502,110866
9.71763,111548
9.72023,107749
9.72283,102102
9.72545,109080
9.72805,109879
9.73067,112454
9.73327,108351
9.73587,110912
9.73848,107067
9.74108,108311
9.74370,108293
9.74630,106572
9.74890,109257
9.75152,108361
9.75412,102976
9.75673,107996
9.75933,107581
9.76195,109768
9.76455,107980
9.76715,106718
9.76977,108794
9.77237,106694
9.77498,109757
9.77758,103765
9.78018,108405
9.78280,108158
9.78540,111923
9.78802,109346
9.79062,108330
9.79322,104819
9.79583,108442
9.79843,108957
9.80105,109039
9.80365,105782
9.80625,108780
9.80887,106928
9.81147,107652
9.81408,110144
9.81668,105025
9.81928,106369
9.82190,106997
9.82450,106869
9.82712,108551
9.82972,105423
9.83232,106445
9.83493,108969
9.83753,106621
9.84015,105668
9.84275,106876
9.84537,102204
9.84797,106596
9.85057,107356
9.85318,109433
9.85578,107395
9.85840,108029
9.86100,102281
9.86360,104094
9.86622,109080
9.86882,105157
9.87143,104673
9.87403,109360
9.87663,108135
9.87925,105819
9.88185,111641
9.88447,103617
9.88707,105455
9.88967,113049
9.89228,104228
9.89488,111319
9.89750,107195
9.90010,105942
9.90270,109899
9.90532,106943
9.90792,104003
9.91053,107041
9.91313,110584
9.91573,110119
9.91835,113336
9.92095,106091
9.92357,105335
9.92617,106093
9.92878,105699
9.93138,105229
9.93398,104903
9.93660,107646
9.93920,101962
9.94182,107949
9.94442,105672
9.94702,106737
9.94963,105012
9.95223,107252
9.95485,106452
9.95745,104465
9.96005,107977
9.96267,107393
9.96527,105552
9.96788,108015
9.97048,103923
9.97308,103520
9.97570,105854
9.97830,104249
9.98092,104873
9.98352,106352
9.98612,103650
9.98873,106902
9.99133,107395
9.99395,107047
9.99655,106822
9.99915,104261
10.00177,105874
10.00437,105495
10.00698,105238
10.00958,110719
10.01220,105604
10.01480,104850
10.01740,106193
10.02002,109637
10.02262,107898
10.02523,104197
10.02783,106443
10.03043,101695
10.03305,108339
10.03565,106996
10.03827,108626
10.04087,105301
10.04347,109284
10.04608,111731
10.04868,107500
10.05130,113810
10.05390,106906
10.05650,109827
10.05912,107087
10.06172,110288
10.06433,110735
10.06693,110930
10.06953,112743
10.07215,108434
10.07475,111362
10.07737,107602
10.07997,113872
10.08257,109739
10.08518,108269
10.08778,108542
10.09040,111809
10.09300,113162
10.09562,111678
10.09822,110459
10.10082,106445
10.10343,110192
10.10603,110080
10.10865,107127
10.11125,109535
10.11385,109819
10.11647,107721
10.11907,110752
10.12168,106668
10.12428,111106
10.12688,109854
10.12950,107121
10.13210,111723
10.13472,106281
10.13732,102275
10.13992,106726
10.14253,108808
10.14513,111208
10.14775,106032
10.15035,104548
10.15295,109570
10.15557,106666
10.15817,110552
10.16078,109719
10.16338,107607
10.16598,107345
10.16860,110354
10.17120,108529
10.17382,107525
10.17642,107991
10.17903,108427
10.18163,108595
10.18423,108034
10.18685,109977
10.18945,111451
10.19207,108546
10.19467,108733
10.19727,107374
10.19988,107454
10.20248,110043
10.20510,109111
10.20770,108350
10.21030,111525
10.21292,112194
10.21552,104459
10.21813,110500
10.22073,109189
10.22333,112272
10.22595,107938
10.22855,107825
10.23117,106538
10.23377,108332
10.23637,105228
10.23898,110093
10.24158,104911
10.24420,108060
10.24680,104934
10.24940,108011
10.25202,106550
10.25462,108116
10.25723,108929
10.25983,106190
10.26245,105986
10.26505,108830
10.26765,107113
10.27027,110292
10.27287,108804
10.27548,105690
10.27808,106657
10.28068,110800
10.28330,103158
10.28590,104392
10.28852,104842
10.29112,106799
10.29372,106213
10.29633,110148
10.29893,109295
10.30155,106510
10.30415,105280
10.30675,109780
10.30937,108783
10.31197,108128
10.31458,104832
10.31718,107630
10.31978,106932
10.32240,108332
10.32500,106549
10.32762,108508
10.33022,108741
10.33282,104914
10.33543,105433
10.33803,109917
10.34065,106527
10.34325,109633
10.34587,110082
10.34847,110051
10.35107,105766
10.35368,109020
10.35628,106289
10.35890,109675
10.36150,111568
10.36410,108489
10.36672,108093
10.36932,106024
10.37193,105208
10.37453,106111
10.37713,105972
10.37975,108903
10.38235,107190
10.38497,106990
10.38757,103900
10.39017,107408
10.39278,106374
10.39538,110136
10.39800,110357
10.40060,110233
10.40320,105536
10.40582,105747
10.40842,107119
10.41103,108687
10.41363,112092
10.41623,109752
10.41885,106543
10.42145,109148
10.42407,111155
10.42667,108403
10.42928,114582
10.43188,110215
10.43448,113577
10.43710,110500
10.43970,114423
10.44232,112279
10.44492,110963
10.44752,111381
10.45013,117036
10.45273,110921
10.45535,109582
10.45795,111991
10.46055,116581
10.46317,116788
10.46577,118949
10.46838,113821
10.47098,123335
10.47358,121068
10.47620,125873
10.47880,120480
10.48142,123150
10.48402,124941
10.48662,126305
10.48923,121891
10.49183,122171
10.49445,124597
10.49705,119492
10.49965,126016
10.50227,120645
10.50487,122298
10.50748,121343
10.51008,117653
10.51270,121762
10.51530,120611
10.51790,120540
10.52052,119890
10.52312,115716
10.52573,121549
10.52833,114660
10.53093,116854
10.53355,121850
10.53615,120716
10.53877,119723
10.54137,115625
10.54397,115214
10.54658,119649
10.54918,114029
10.55180,113787
10.55440,113283
10.55700,112321
10.55962,118439
10.56222,113438
10.56483,114839
10.56743,112633
10.57003,110264
10.57265,106252
10.57525,118156
10.57787,118583
10.58047,114581
10.58307,115235
10.58568,111220
10.58828,109359
10.59090,110898
10.59350,110480
10.59612,111323
10.59872,112391
10.60132,112511
10.60393,109960
10.60653,110947
10.60915,109008
10.61175,114528
10.61435,111699
10.61697,114441
10.61957,110920
10.62218,111848
10.62478,113250
10.62738,111175
10.63000,109007
10.63260,112148
10.63522,115314
10.63782,107368
10.64042,114298
10.64303,108814
10.64563,116019
10.64825,115947
10.65085,115980
10.65345,110124
10.65607,112469
10.65867,113733
10.66128,113928
