D:\data\overige2021\rk\20200201rk_cocacase28x\B039774.D Mon Feb 01 15:18:26 2021
Start of data points
1.58978,21021
1.59238,19844
1.59500,20766
1.59760,20035
1.60022,20203
1.60282,20065
1.60542,22138
1.60803,19170
1.61063,19321
1.61325,18466
1.61585,21232
1.61845,19274
1.62107,18284
1.62367,19131
1.62628,15995
1.62888,18410
1.63150,18389
1.63410,16903
1.63670,17461
1.63932,15922
1.64192,16524
1.64453,17690
1.64713,15487
1.64973,16151
1.65235,17208
1.65495,17676
1.65757,15894
1.66017,16330
1.66277,15858
1.66538,16764
1.66798,16991
1.67060,15861
1.67320,14791
1.67580,15144
1.67842,17962
1.68102,14693
1.68363,16372
1.68623,17811
1.68883,16281
1.69145,16170
1.69405,15804
1.69667,17050
1.69927,14613
1.70187,14124
1.70448,14168
1.70708,15269
1.70970,13812
1.71230,13549
1.71492,13061
1.71752,14501
1.72012,14798
1.72273,15272
1.72533,12449
1.72795,13042
1.73055,13401
1.73315,13972
1.73577,13856
1.73837,11499
1.74098,13219
1.74358,13560
1.74618,11560
1.74880,14149
1.75140,12732
1.75402,11672
1.75662,14271
1.75922,13269
1.76183,13435
1.76443,12517
1.76705,13829
1.76965,11881
1.77225,11720
1.77487,12204
1.77747,12977
1.78008,12260
1.78268,12862
1.78528,12823
1.78790,11978
1.79050,13053
1.79312,11509
1.79572,10684
1.79833,11202
1.80093,12688
1.80353,11012
1.80615,11548
1.80875,11419
1.81137,12482
1.81397,11087
1.81657,9725
1.81918,10605
1.82178,9079
1.82440,11468
1.82700,9238
1.82960,11479
1.83222,10213
1.83482,11910
1.83743,9698
1.84003,11870
1.84263,10897
1.84525,8839
1.84785,10461
1.85047,9208
1.85307,10681
1.85567,10199
1.85828,9765
1.86088,11121
1.86350,9771
1.86610,11059
1.86870,10301
1.87132,9161
1.87392,10484
1.87653,9816
1.87913,10526
1.88175,7816
1.88435,9147
1.88695,9114
1.88957,10419
1.89217,10577
1.89478,9760
1.89738,9139
1.89998,9292
1.90260,9204
1.90520,11339
1.90782,9810
1.91042,8228
1.91302,10162
1.91563,10348
1.91823,9539
1.92085,10120
1.92345,8899
1.92605,9403
1.92867,8988
1.93127,8093
1.93388,9391
1.93648,9652
1.93908,7891
1.94170,9211
1.94430,8667
1.94692,8749
1.94952,8837
1.95212,10686
1.95473,8388
1.95733,9944
1.95995,9059
1.96255,8840
1.96517,9433
1.96777,7907
1.97037,7065
1.97298,8053
1.97558,9756
1.97820,8637
1.98080,8346
1.98340,9787
1.98602,8129
1.98862,9154
1.99123,8426
1.99383,8866
1.99643,8501
1.99905,7906
2.00165,8813
2.00427,8538
2.00687,10373
2.00947,8865
2.01208,8593
2.01468,8680
2.01730,9146
2.01990,9061
2.02250,9535
2.02512,8579
2.02772,8563
2.03033,9018
2.03293,8578
2.03553,10017
2.03815,9715
2.04075,11739
2.04337,13825
2.04597,14922
2.04858,15873
2.05118,14964
2.05378,15123
2.05640,17095
2.05900,14687
2.06162,14194
2.06422,15001
2.06682,12424
2.06943,13615
2.07203,11567
2.07465,12458
2.07725,13112
2.07985,11074
2.08247,12823
2.08507,10534
2.08768,10808
2.09028,10547
2.09288,10206
2.09550,11195
2.09810,9838
2.10072,9859
2.10332,11429
2.10592,8974
2.10853,10014
2.11113,9546
2.11375,9093
2.11635,11545
2.11895,9600
2.12157,7996
2.12417,9022
2.12678,10233
2.12938,10237
2.13200,8514
2.13460,8261
2.13720,8024
2.13982,9088
2.14242,10157
2.14503,10179
2.14763,8962
2.15023,8754
2.15285,7613
2.15545,10241
2.15807,9670
2.16067,9438
2.16327,8345
2.16588,8427
2.16848,9373
2.17110,9734
2.17370,8683
2.17630,9689
2.17892,7830
2.18152,9854
2.18413,9870
2.18673,8670
2.18933,9089
2.19195,9396
2.19455,8268
2.19717,10374
2.19977,9750
2.20237,9112
2.20498,8416
2.20758,9639
2.21020,8567
2.21280,6860
2.21542,8380
2.21802,9717
2.22062,8249
2.22323,8398
2.22583,8099
2.22845,10436
2.23105,8777
2.23365,8976
2.23627,10090
2.23887,9303
2.24148,8564
2.24408,7823
2.24668,8318
2.24930,9158
2.25190,8992
2.25452,8108
2.25712,8219
2.25972,8351
2.26233,8655
2.26493,8877
2.26755,8097
2.27015,7252
2.27275,7162
2.27537,8424
2.27797,7684
2.28058,7943
2.28318,9031
2.28578,7456
2.28840,9683
2.29100,7638
2.29362,7001
2.29622,9409
2.29883,7316
2.30143,8389
2.30403,8581
2.30665,7114
2.30925,6604
2.31187,8103
2.31447,8215
2.31707,8310
2.31968,8138
2.32228,7699
2.32490,7867
2.32750,9832
2.33010,8918
2.33272,7147
2.33532,8848
2.33793,9383
2.34053,10074
2.34313,8283
2.34575,8155
2.34835,7670
2.35097,8294
2.35357,7957
2.35617,9875
2.35878,7418
2.36138,8589
2.36400,7766
2.36660,6967
2.36920,7981
2.37182,6888
2.37442,8681
2.37703,8272
2.37963,7932
2.38225,7584
2.38485,8714
2.38745,7982
2.39007,8102
2.39267,8486
2.39528,8455
2.39788,9294
2.40048,9237
2.40310,8114
2.40570,8341
2.40832,7556
2.41092,8308
2.41352,9902
2.41613,8828
2.41873,7342
2.42135,8590
2.42395,7536
2.42655,9885
2.42917,7564
2.43177,7738
2.43438,7312
2.43698,7515
2.43958,7887
2.44220,7451
2.44480,8738
2.44742,9664
2.45002,7721
2.45262,7574
2.45523,9888
2.45783,9308
2.46045,10074
2.46305,12997
2.46567,12837
2.46827,12814
2.47087,13616
2.47348,13491
2.47608,13080
2.47870,12369
2.48130,11440
2.48390,13244
2.48652,9857
2.48912,8990
2.49173,10279
2.49433,10165
2.49693,10912
2.49955,10111
2.50215,9940
2.50477,10893
2.50737,9141
2.50997,9594
2.51258,9362
2.51518,9241
2.51780,9720
2.52040,8996
2.52300,8061
2.52562,9070
2.52822,8476
2.53083,9381
2.53343,8753
2.53603,9103
2.53865,7487
2.54125,8438
2.54387,7756
2.54647,8045
2.54908,9040
2.55168,8197
2.55428,7403
2.55690,8710
2.55950,8210
2.56212,8715
2.56472,8948
2.56732,7835
2.56993,8817
2.57253,7713
2.57515,7605
2.57775,7015
2.58035,9024
2.58297,8139
2.58557,9251
2.58818,8924
2.59078,10523
2.59338,9469
2.59600,8351
2.59860,8683
2.60122,8674
2.60382,9161
2.60642,8639
2.60903,7819
2.61163,9384
2.61425,7308
2.61685,8200
2.61947,8350
2.62207,8414
2.62467,8082
2.62728,9782
2.62988,8819
2.63250,7361
2.63510,8136
2.63770,9128
2.64032,8440
2.64292,9639
2.64553,8362
2.64813,8840
2.65073,6430
2.65335,8193
2.65595,8148
2.65857,7612
2.66117,8338
2.66377,8086
2.66638,9628
2.66898,7925
2.67160,8557
2.67420,6683
2.67680,7757
2.67942,6149
2.68202,8474
2.68463,8084
2.68723,7843
2.68983,8770
2.69245,8862
2.69505,9518
2.69767,7012
2.70027,7964
2.70288,8277
2.70548,8395
2.70808,8106
2.71070,8892
2.71330,8311
2.71592,7873
2.71852,7814
2.72112,7871
2.72373,7507
2.72633,7113
2.72895,9503
2.73155,7628
2.73415,7939
2.73677,8349
2.73937,8356
2.74198,6835
2.74458,7181
2.74718,6927
2.74980,7597
2.75240,8640
2.75502,8684
2.75762,7377
2.76022,8242
2.76283,8095
2.76543,8301
2.76805,8323
2.77065,8210
2.77325,6434
2.77587,7183
2.77847,7933
2.78108,7540
2.78368,8072
2.78630,7934
2.78890,8022
2.79150,8233
2.79412,8312
2.79672,7831
2.79933,8256
2.80193,7262
2.80453,7810
2.80715,7210
2.80975,7749
2.81237,7450
2.81497,8427
2.81757,7620
2.82018,8245
2.82278,7493
2.82540,6837
2.82800,6226
2.83060,7879
2.83322,7784
2.83582,8686
2.83843,8671
2.84103,8491
2.84363,8051
2.84625,7158
2.84885,8420
2.85147,8034
2.85407,7476
2.85667,8536
2.85928,7205
2.86188,5896
2.86450,7278
2.86710,6922
2.86972,8056
2.87232,8184
2.87492,6952
2.87753,8045
2.88013,6174
2.88275,5338
2.88535,6919
2.88795,8008
2.89057,8987
2.89317,8759
2.89578,8559
2.89838,7146
2.90098,7837
2.90360,7730
2.90620,7355
2.90882,9169
2.91142,7701
2.91402,7971
2.91663,6897
2.91923,8472
2.92185,7042
2.92445,6968
2.92705,7373
2.92967,7621
2.93227,7378
2.93488,9650
2.93748,8126
2.94008,7334
2.94270,6934
2.94530,6945
2.94792,7539
2.95052,7203
2.95313,8830
2.95573,8420
2.95833,8318
2.96095,6477
2.96355,8508
2.96617,6703
2.96877,8291
2.97137,8844
2.97398,8243
2.97658,9253
2.97920,7803
2.98180,8691
2.98440,8071
2.98702,7354
2.98962,7102
2.99223,7309
2.99483,6304
2.99743,7724
3.00005,9547
3.00265,7202
3.00527,7620
3.00787,7844
3.01047,8494
3.01308,6665
3.01568,7672
3.01830,8030
3.02090,6729
3.02350,8656
3.02612,8155
3.02872,7509
3.03133,7846
3.03393,8722
3.03655,7697
3.03915,7965
3.04175,6776
3.04437,9082
3.04697,7621
3.04958,7835
3.05218,8409
3.05478,8234
3.05740,9921
3.06000,7646
3.06262,7204
3.06522,6608
3.06782,8105
3.07043,7241
3.07303,8442
3.07565,8752
3.07825,8813
3.08085,7974
3.08347,8111
3.08607,7397
3.08868,8564
3.09128,9579
3.09388,7635
3.09650,6384
3.09910,8180
3.10172,7987
3.10432,7403
3.10692,7659
3.10953,8145
3.11213,6688
3.11475,6266
3.11735,8251
3.11997,6621
3.12257,7111
3.12517,7438
3.12778,9313
3.13038,11322
3.13300,13348
3.13560,16348
3.13820,15395
3.14082,20194
3.14342,17703
3.14603,20529
3.14863,20275
3.15123,17991
3.15385,19480
3.15645,17808
3.15907,17591
3.16167,17136
3.16427,19516
3.16688,16766
3.16948,19755
3.17210,16880
3.17470,16156
3.17730,16582
3.17992,15060
3.18252,17500
3.18513,16363
3.18773,15379
3.19033,13875
3.19295,14721
3.19555,15507
3.19817,14571
3.20077,15837
3.20338,15386
3.20598,13924
3.20858,15234
3.21120,13410
3.21380,14315
3.21642,11486
3.21902,12379
3.22162,13325
3.22423,10392
3.22683,12076
3.22945,11684
3.23205,11990
3.23465,12867
3.23727,12271
3.23987,10624
3.24248,11547
3.24508,10658
3.24768,12167
3.25030,9671
3.25290,11461
3.25552,10008
3.25812,11797
3.26072,9463
3.26333,12610
3.26593,10136
3.26855,11965
3.27115,10320
3.27375,10810
3.27637,11065
3.27897,10465
3.28158,11173
3.28418,10208
3.28680,10458
3.28940,11605
3.29200,10679
3.29462,8607
3.29722,9082
3.29983,10081
3.30243,10305
3.30503,11126
3.30765,10370
3.31025,12267
3.31287,10382
3.31547,12701
3.31807,11138
3.32068,10245
3.32328,10258
3.32590,9738
3.32850,10033
3.33110,8603
3.33372,11167
3.33632,10331
3.33893,10464
3.34153,10085
3.34413,9043
3.34675,8790
3.34935,9101
3.35197,10366
3.35457,9002
3.35717,8738
3.35978,9500
3.36238,10036
3.36500,10295
3.36760,8054
3.37022,9166
3.37282,9611
3.37542,9166
3.37803,9361
3.38063,10310
3.38325,8375
3.38585,9023
3.38845,8955
3.39107,8043
3.39367,9772
3.39628,9766
3.39888,11753
3.40148,9304
3.40410,11829
3.40670,12063
3.40932,11307
3.41192,13484
3.41452,11993
3.41713,11181
3.41973,11310
3.42235,12175
3.42495,11109
3.42755,12204
3.43017,12517
3.43277,10484
3.43538,11057
3.43798,11149
3.44058,11723
3.44320,9669
3.44580,12145
3.44842,11277
3.45102,10499
3.45363,9754
3.45623,10469
3.45883,11176
3.46145,11260
3.46405,9414
3.46667,10849
3.46927,10096
3.47187,10989
3.47448,11359
3.47708,9936
3.47970,10814
3.48230,10092
3.48490,10147
3.48752,9642
3.49012,10715
3.49273,9576
3.49533,10120
3.49793,10466
3.50055,11323
3.50315,10111
3.50577,9331
3.50837,9014
3.51097,12002
3.51358,15617
3.51618,24947
3.51880,47771
3.52140,73885
3.52400,89035
3.52662,86425
3.52922,75674
3.53183,55923
3.53443,42295
3.53705,33966
3.53965,26060
3.54225,22496
3.54487,21017
3.54747,20271
3.55008,18737
3.55268,14860
3.55528,18401
3.55790,16895
3.56050,17327
3.56312,15551
3.56572,15374
3.56832,16663
3.57093,16299
3.57353,15420
3.57615,14497
3.57875,15382
3.58135,16354
3.58397,16268
3.58657,15250
3.58918,15451
3.59178,16585
3.59438,17473
3.59700,17766
3.59960,17326
3.60222,17068
3.60482,16666
3.60742,16318
3.61003,17299
3.61263,14573
3.61525,16616
3.61785,14114
3.62047,17015
3.62307,15581
3.62567,15952
3.62828,15191
3.63088,15397
3.63350,16349
3.63610,18432
3.63870,21057
3.64132,20449
3.64392,22637
3.64653,19704
3.64913,20764
3.65173,19505
3.65435,17830
3.65695,18002
3.65957,16913
3.66217,13725
3.66477,14571
3.66738,15168
3.66998,14455
3.67260,15383
3.67520,15626
3.67780,14173
3.68042,15448
3.68302,13253
3.68563,13012
3.68823,13333
3.69083,14167
3.69345,14475
3.69605,13680
3.69867,15914
3.70127,16982
3.70388,12358
3.70648,13344
3.70908,13860
3.71170,13965
3.71430,12961
3.71692,14830
3.71952,15533
3.72212,14663
3.72473,15435
3.72733,13909
3.72995,14454
3.73255,14592
3.73515,13537
3.73777,14116
3.74037,12277
3.74298,13824
3.74558,15178
3.74818,15235
3.75080,12927
3.75340,13176
3.75602,14195
3.75862,14274
3.76122,13206
3.76383,14473
3.76643,13967
3.76905,14364
3.77165,12213
3.77425,12626
3.77687,12966
3.77947,14017
3.78208,12496
3.78468,13477
3.78730,13123
3.78990,13223
3.79250,13928
3.79512,13672
3.79772,10636
3.80033,13764
3.80293,12299
3.80553,11992
3.80815,12205
3.81075,13221
3.81337,12004
3.81597,13727
3.81857,11794
3.82118,12314
3.82378,12960
3.82640,13653
3.82900,12319
3.83160,14281
3.83422,11989
3.83682,12737
3.83943,12303
3.84203,14657
3.84463,14284
3.84725,13164
3.84985,11890
3.85247,15423
3.85507,14303
3.85767,11970
3.86028,12140
3.86288,14084
3.86550,13537
3.86810,13155
3.87072,15573
3.87332,14084
3.87592,13469
3.87853,12284
3.88113,13630
3.88375,12501
3.88635,12408
3.88895,13007
3.89157,12974
3.89417,13297
3.89678,14261
3.89938,14673
3.90198,11355
3.90460,12289
3.90720,12876
3.90982,11884
3.91242,12585
3.91502,14380
3.91763,14597
3.92023,14294
3.92285,13109
3.92545,15651
3.92805,16713
3.93067,22905
3.93327,29086
3.93588,34997
3.93848,37973
3.94108,35157
3.94370,28073
3.94630,24960
3.94892,22813
3.95152,20747
3.95413,19194
3.95673,16997
3.95933,16071
3.96195,16418
3.96455,14522
3.96717,14978
3.96977,13160
3.97237,15687
3.97498,16461
3.97758,15657
3.98020,15358
3.98280,14149
3.98540,12986
3.98802,13327
3.99062,14477
3.99323,13025
3.99583,13835
3.99843,12742
4.00105,12340
4.00365,13068
4.00627,14481
4.00887,13730
4.01147,13411
4.01408,14066
4.01668,12599
4.01930,13092
4.02190,13395
4.02450,13983
4.02712,13763
4.02972,14399
4.03233,12534
4.03493,12067
4.03755,15203
4.04015,14066
4.04275,11242
4.04537,14275
4.04797,13892
4.05058,13221
4.05318,13632
4.05578,14351
4.05840,14316
4.06100,14521
4.06362,12606
4.06622,12043
4.06882,13145
4.07143,12465
4.07403,13104
4.07665,14129
4.07925,11273
4.08185,12875
4.08447,13422
4.08707,12148
4.08968,14593
4.09228,12839
4.09488,13532
4.09750,13751
4.10010,12961
4.10272,12566
4.10532,10709
4.10792,13532
4.11053,13138
4.11313,12236
4.11575,11082
4.11835,13767
4.12097,11631
4.12357,11337
4.12617,13201
4.12878,12231
4.13138,12530
4.13400,12583
4.13660,12525
4.13920,10981
4.14182,12899
4.14442,12038
4.14703,12426
4.14963,12809
4.15223,12570
4.15485,12799
4.15745,12679
4.16007,11558
4.16267,12319
4.16527,12592
4.16788,12555
4.17048,12246
4.17310,13299
4.17570,12207
4.17830,12757
4.18092,11765
4.18352,12421
4.18613,13136
4.18873,13432
4.19133,12318
4.19395,11328
4.19655,12036
4.19917,13251
4.20177,12138
4.20438,13259
4.20698,11419
4.20958,12624
4.21220,14014
4.21480,13672
4.21742,13380
4.22002,11284
4.22262,13171
4.22523,10028
4.22783,13410
4.23045,11969
4.23305,10903
4.23565,11458
4.23827,13057
4.24087,13369
4.24348,12542
4.24608,13130
4.24868,11913
4.25130,12726
4.25390,11880
4.25652,12164
4.25912,10724
4.26172,11347
4.26433,10844
4.26693,12384
4.26955,10144
4.27215,11077
4.27475,11286
4.27737,11875
4.27997,12720
4.28258,12077
4.28518,10116
4.28780,10685
4.29040,12963
4.29300,13990
4.29562,11334
4.29822,12771
4.30083,14077
4.30343,11345
4.30603,13296
4.30865,12456
4.31125,10928
4.31387,12161
4.31647,12396
4.31907,12872
4.32168,12114
4.32428,12701
4.32690,13274
4.32950,11596
4.33210,10630
4.33472,10786
4.33732,13234
4.33993,12012
4.34253,11759
4.34513,11099
4.34775,11522
4.35035,11969
4.35297,11363
4.35557,11536
4.35817,11514
4.36078,11213
4.36338,13274
4.36600,11197
4.36860,15165
4.37122,11833
4.37382,13046
4.37642,13113
4.37903,13432
4.38163,12139
4.38425,11976
4.38685,12681
4.38945,12585
4.39207,12902
4.39467,12753
4.39728,11879
4.39988,11749
4.40248,12295
4.40510,13755
4.40770,13655
4.41032,14301
4.41292,13192
4.41552,12911
4.41813,11366
4.42073,10947
4.42335,12367
4.42595,12910
4.42855,11438
4.43117,11928
4.43377,12022
4.43638,13302
4.43898,13038
4.44158,12541
4.44420,11349
4.44680,14532
4.44942,13305
4.45202,12116
4.45463,11084
4.45723,10735
4.45983,11161
4.46245,12225
4.46505,11078
4.46767,12708
4.47027,12251
4.47287,11031
4.47548,11844
4.47808,11759
4.48070,11148
4.48330,13205
4.48590,11324
4.48852,11467
4.49112,12975
4.49373,13360
4.49633,11144
4.49893,11212
4.50155,11615
4.50415,11984
4.50677,12472
4.50937,10967
4.51197,10345
4.51458,13049
4.51718,13378
4.51980,11468
4.52240,11977
4.52500,12088
4.52762,11443
4.53022,12035
4.53283,12079
4.53543,12013
4.53805,10462
4.54065,10864
4.54325,11901
4.54587,13304
4.54847,12357
4.55108,11779
4.55368,11037
4.55628,12652
4.55890,12129
4.56150,10843
4.56412,11831
4.56672,13306
4.56932,11291
4.57193,11582
4.57453,12821
4.57715,12716
4.57975,9486
4.58235,12161
4.58497,11680
4.58757,12429
4.59018,12452
4.59278,11764
4.59538,10175
4.59800,11930
4.60060,13731
4.60322,11533
4.60582,11222
4.60842,11815
4.61103,11138
4.61363,12220
4.61625,12369
4.61885,11779
4.62147,12159
4.62407,14501
4.62667,11160
4.62928,12190
4.63188,10794
4.63450,11737
4.63710,11647
4.63970,12632
4.64232,11111
4.64492,11067
4.64753,12261
4.65013,10629
4.65273,11091
4.65535,11360
4.65795,14410
4.66057,11094
4.66317,12203
4.66577,12137
4.66838,13183
4.67098,13359
4.67360,11339
4.67620,12494
4.67880,13204
4.68142,12841
4.68402,11535
4.68663,13613
4.68923,12902
4.69183,12016
4.69445,11683
4.69705,12333
4.69967,12334
4.70227,12738
4.70488,11735
4.70748,12357
4.71008,11624
4.71270,11177
4.71530,12261
4.71792,12540
4.72052,12103
4.72312,12481
4.72573,10722
4.72833,12194
4.73095,12066
4.73355,10450
4.73615,11357
4.73877,13904
4.74137,10739
4.74398,13714
4.74658,12157
4.74918,12692
4.75180,12797
4.75440,12147
4.75702,10937
4.75962,11414
4.76222,11814
4.76483,12325
4.76743,11671
4.77005,12668
4.77265,12180
4.77525,12335
4.77787,12414
4.78047,11959
4.78308,11988
4.78568,12089
4.78830,13157
4.79090,11409
4.79350,11865
4.79612,11710
4.79872,11820
4.80133,12057
4.80393,11933
4.80653,11097
4.80915,12601
4.81175,12527
4.81437,10369
4.81697,11451
4.81957,11871
4.82218,13596
4.82478,12742
4.82740,12807
4.83000,12175
4.83260,10288
4.83522,11947
4.83782,11209
4.84043,12616
4.84303,13451
4.84563,11698
4.84825,12031
4.85085,12099
4.85347,13675
4.85607,12222
4.85867,13161
4.86128,12045
4.86388,13469
4.86650,12842
4.86910,12034
4.87172,10953
4.87432,12908
4.87692,11692
4.87953,11730
4.88213,10275
4.88475,12215
4.88735,12661
4.88995,12114
4.89257,12205
4.89517,13636
4.89778,14862
4.90038,12491
4.90298,12576
4.90560,11454
4.90820,13069
4.91082,11271
4.91342,13099
4.91602,11229
4.91863,13338
4.92123,12045
4.92385,10753
4.92645,11045
4.92905,11628
4.93167,10604
4.93427,13305
4.93688,12780
4.93948,10774
4.94208,12867
4.94470,13667
4.94730,12375
4.94992,11459
4.95252,11464
4.95513,13037
4.95773,10765
4.96033,12182
4.96295,11729
4.96555,11714
4.96817,11364
4.97077,11919
4.97337,11028
4.97598,11935
4.97858,13106
4.98120,11942
4.98380,11461
4.98640,12834
4.98902,10913
4.99162,10761
4.99423,12148
4.99683,10822
4.99943,11962
5.00205,13566
5.00465,11899
5.00727,11536
5.00987,12946
5.01247,12335
5.01508,12364
5.01768,11174
5.02030,13808
5.02290,11908
5.02550,12500
5.02812,11756
5.03072,12684
5.03333,12096
5.03593,12787
5.03855,13206
5.04115,12518
5.04375,12159
5.04637,13169
5.04897,12096
5.05158,12389
5.05418,12512
5.05678,10714
5.05940,11640
5.06200,11830
5.06462,13881
5.06722,13125
5.06982,11086
5.07243,13190
5.07503,11997
5.07765,10821
5.08025,10612
5.08285,11105
5.08547,11853
5.08807,12844
5.09068,12910
5.09328,12424
5.09588,11450
5.09850,12473
5.10110,13112
5.10372,15014
5.10632,11742
5.10892,12132
5.11153,11017
5.11413,11922
5.11675,12361
5.11935,12006
5.12197,12155
5.12457,12580
5.12717,13338
5.12978,12699
5.13238,12113
5.13500,10277
5.13760,12707
5.14020,12410
5.14282,12921
5.14542,13549
5.14803,12268
5.15063,11203
5.15323,13954
5.15585,12818
5.15845,13862
5.16107,14683
5.16367,13277
5.16627,15217
5.16888,11675
5.17148,12371
5.17410,11836
5.17670,12259
5.17930,11881
5.18192,12383
5.18452,11683
5.18713,12437
5.18973,12070
5.19233,11898
5.19495,12405
5.19755,12324
5.20017,12202
5.20277,14552
5.20538,14173
5.20798,12060
5.21058,13279
5.21320,11322
5.21580,12998
5.21842,12336
5.22102,11901
5.22362,11500
5.22623,13145
5.22883,11794
5.23145,12672
5.23405,12705
5.23665,13361
5.23927,11761
5.24187,11109
5.24448,12319
5.24708,12902
5.24968,12800
5.25230,12266
5.25490,11742
5.25752,12274
5.26012,12402
5.26272,12968
5.26533,13188
5.26793,12299
5.27055,11723
5.27315,10962
5.27575,12217
5.27837,11927
5.28097,11654
5.28358,11820
5.28618,11665
5.28880,11694
5.29140,12067
5.29400,12297
5.29662,13637
5.29922,10741
5.30183,12753
5.30443,12333
5.30703,11237
5.30965,11509
5.31225,12862
5.31487,12498
5.31747,11028
5.32007,10939
5.32268,12930
5.32528,12035
5.32790,12950
5.33050,11886
5.33310,11899
5.33572,12948
5.33832,11779
5.34093,13131
5.34353,13334
5.34613,12357
5.34875,12780
5.35135,11524
5.35397,12243
5.35657,11228
5.35917,12346
5.36178,12961
5.36438,13262
5.36700,9990
5.36960,11532
5.37222,12142
5.37482,12031
5.37742,13057
5.38003,12575
5.38263,13202
5.38525,12147
5.38785,12200
5.39045,11864
5.39307,14570
5.39567,12916
5.39828,12730
5.40088,12997
5.40348,11956
5.40610,14782
5.40870,12702
5.41132,11789
5.41392,12313
5.41652,13403
5.41913,12382
5.42173,10870
5.42435,11416
5.42695,13216
5.42955,12646
5.43217,12130
5.43477,11310
5.43738,13615
5.43998,13371
5.44258,12438
5.44520,14435
5.44780,14541
5.45042,15260
5.45302,16159
5.45563,18857
5.45823,18450
5.46083,18720
5.46345,17242
5.46605,14919
5.46867,16513
5.47127,16540
5.47387,12632
5.47648,13750
5.47908,12725
5.48170,12193
5.48430,12587
5.48690,12402
5.48952,12159
5.49212,13249
5.49473,12477
5.49733,12944
5.49993,12336
5.50255,12428
5.50515,12823
5.50777,13000
5.51037,12430
5.51297,12260
5.51558,12956
5.51818,14246
5.52080,14019
5.52340,12747
5.52600,14634
5.52862,13782
5.53122,13257
5.53383,13286
5.53643,13954
5.53905,13346
5.54165,12158
5.54425,10457
5.54687,12829
5.54947,13748
5.55208,13286
5.55468,12331
5.55728,14358
5.55990,12330
5.56250,11617
5.56512,11590
5.56772,14250
5.57032,12720
5.57293,12367
5.57553,12736
5.57815,13082
5.58075,13301
5.58335,12838
5.58597,14078
5.58857,13827
5.59118,12866
5.59378,13437
5.59638,12155
5.59900,12679
5.60160,13113
5.60422,11879
5.60682,11368
5.60942,12862
5.61203,12554
5.61463,12504
5.61725,12293
5.61985,12537
5.62247,13564
5.62507,11613
5.62767,13030
5.63028,13374
5.63288,12775
5.63550,12432
5.63810,14077
5.64070,13176
5.64332,12579
5.64592,13878
5.64853,13477
5.65113,12121
5.65373,12903
5.65635,12357
5.65895,12958
5.66157,14066
5.66417,12295
5.66677,13906
5.66938,12927
5.67198,13398
5.67460,13144
5.67720,12186
5.67980,12733
5.68242,12762
5.68502,12033
5.68763,11983
5.69023,15101
5.69283,12608
5.69545,12306
5.69805,12871
5.70067,14247
5.70327,16382
5.70588,17202
5.70848,18197
5.71108,15810
5.71370,13979
5.71630,14690
5.71892,13767
5.72152,15103
5.72412,12705
5.72673,13519
5.72933,12712
5.73195,12477
5.73455,13225
5.73715,13717
5.73977,12195
5.74237,12082
5.74498,14122
5.74758,12972
5.75018,14133
5.75280,13227
5.75540,11789
5.75802,14440
5.76062,14118
5.76322,12725
5.76583,13324
5.76843,15332
5.77105,14697
5.77365,14170
5.77625,16382
5.77887,14267
5.78147,13000
5.78408,12485
5.78668,12392
5.78930,14317
5.79190,12607
5.79450,13640
5.79712,14123
5.79972,14156
5.80233,12703
5.80493,13312
5.80753,14437
5.81015,14922
5.81275,19028
5.81537,30281
5.81797,42894
5.82057,58094
5.82318,68115
5.82578,61647
5.82840,51342
5.83100,33822
5.83360,24546
5.83622,23796
5.83882,24195
5.84143,32903
5.84403,36703
5.84663,39420
5.84925,32752
5.85185,23165
5.85447,20207
5.85707,19621
5.85967,17726
5.86228,16284
5.86488,17035
5.86750,16041
5.87010,15102
5.87272,13526
5.87532,13543
5.87792,13491
5.88053,14035
5.88313,15248
5.88575,14916
5.88835,15183
5.89095,14435
5.89357,16047
5.89617,14400
5.89878,14336
5.90138,15833
5.90398,14563
5.90660,14631
5.90920,15906
5.91182,16567
5.91442,14363
5.91702,15566
5.91963,14219
5.92223,15921
5.92485,15268
5.92745,15192
5.93005,16453
5.93267,14186
5.93527,15972
5.93788,17975
5.94048,18957
5.94308,20182
5.94570,18506
5.94830,20981
5.95092,18655
5.95352,16915
5.95613,17273
5.95873,16619
5.96133,15773
5.96395,16266
5.96655,17695
5.96917,15511
5.97177,17306
5.97437,17766
5.97698,15127
5.97958,16838
5.98220,14783
5.98480,16250
5.98740,16678
5.99002,17118
5.99262,17642
5.99523,17992
5.99783,16340
6.00043,16774
6.00305,14315
6.00565,16363
6.00827,16601
6.01087,15479
6.01347,14844
6.01608,17306
6.01868,14516
6.02130,13882
6.02390,15235
6.02650,16856
6.02912,15266
6.03172,15605
6.03433,16623
6.03693,15556
6.03955,15897
6.04215,16733
6.04475,19411
6.04737,22813
6.04997,24355
6.05258,28663
6.05518,29694
6.05778,28195
6.06040,26598
6.06300,24434
6.06562,22724
6.06822,21593
6.07082,20184
6.07343,21043
6.07603,19547
6.07865,20217
6.08125,19360
6.08385,17967
6.08647,17317
6.08907,18459
6.09168,19688
6.09428,17399
6.09688,16806
6.09950,19456
6.10210,16306
6.10472,18403
6.10732,17339
6.10992,18485
6.11253,17490
6.11513,17619
6.11775,18711
6.12035,17891
6.12297,16615
6.12557,17297
6.12817,19019
6.13078,19889
6.13338,19137
6.13600,20038
6.13860,17471
6.14120,15889
6.14382,17242
6.14642,17856
6.14903,16831
6.15163,16082
6.15423,16151
6.15685,14459
6.15945,16700
6.16207,15787
6.16467,17100
6.16727,17391
6.16988,15147
6.17248,17767
6.17510,19902
6.17770,22111
6.18030,19919
6.18292,19052
6.18552,16549
6.18813,17747
6.19073,17425
6.19333,16225
6.19595,16127
6.19855,15941
6.20117,14872
6.20377,15385
6.20638,14483
6.20898,15191
6.21158,13550
6.21420,15353
6.21680,14823
6.21942,14586
6.22202,15993
6.22462,15575
6.22723,14874
6.22983,14490
6.23245,15473
6.23505,14980
6.23765,13791
6.24027,15825
6.24287,15291
6.24548,14280
6.24808,16370
6.25068,15656
6.25330,17044
6.25590,16082
6.25852,16213
6.26112,14939
6.26372,16457
6.26633,15418
6.26893,14678
6.27155,16643
6.27415,14956
6.27675,15411
6.27937,15144
6.28197,16060
6.28458,15519
6.28718,15979
6.28980,16173
6.29240,17506
6.29500,14331
6.29762,16334
6.30022,14689
6.30283,14346
6.30543,15260
6.30803,15762
6.31065,15133
6.31325,13698
6.31587,14167
6.31847,14854
6.32107,14100
6.32368,16164
6.32628,12659
6.32890,13962
6.33150,14433
6.33410,14524
6.33672,13643
6.33932,15616
6.34193,16972
6.34453,15912
6.34713,16325
6.34975,16861
6.35235,17198
6.35497,15153
6.35757,14394
6.36017,16285
6.36278,13962
6.36538,14260
6.36800,15143
6.37060,14603
6.37322,17111
6.37582,15646
6.37842,17052
6.38103,17287
6.38363,16316
6.38625,16567
6.38885,14594
6.39145,17625
6.39407,16473
6.39667,13828
6.39928,16687
6.40188,16196
6.40448,17194
6.40710,15081
6.40970,16873
6.41232,16471
6.41492,16240
6.41752,15653
6.42013,16055
6.42273,14047
6.42535,15465
6.42795,14471
6.43055,17047
6.43317,15348
6.43577,16392
6.43838,14558
6.44098,14153
6.44358,15915
6.44620,15342
6.44880,16314
6.45142,16257
6.45402,14343
6.45663,14902
6.45923,15850
6.46183,13973
6.46445,14530
6.46705,14802
6.46967,16492
6.47227,15467
6.47487,17339
6.47748,17360
6.48008,17663
6.48270,15949
6.48530,16801
6.48790,15440
6.49052,16754
6.49312,14170
6.49573,15923
6.49833,17658
6.50093,18970
6.50355,18042
6.50615,18919
6.50877,17777
6.51137,17987
6.51397,17053
6.51658,15339
6.51918,15535
6.52180,13946
6.52440,16016
6.52700,16079
6.52962,15609
6.53222,16097
6.53483,16681
6.53743,17321
6.54005,16588
6.54265,15001
6.54525,15614
6.54787,17019
6.55047,15117
6.55308,14968
6.55568,16176
6.55828,17218
6.56090,16766
6.56350,14717
6.56612,14683
6.56872,16514
6.57132,16233
6.57393,16975
6.57653,17194
6.57915,16677
6.58175,16157
6.58435,16608
6.58697,25566
6.58957,62762
6.59218,198186
6.59478,718126
6.59738,2315881
6.60000,5478825
6.60260,1.015781E+07
6.60522,1.583034E+07
6.60782,2.100269E+07
6.61042,2.475924E+07
6.61303,2.375647E+07
6.61563,1.682051E+07
6.61825,6953216
6.62085,1935945
6.62347,551694
6.62607,244561
6.62867,158459
6.63128,123386
6.63388,102532
6.63650,85476
6.63910,75522
6.64170,68909
6.64432,64778
6.64692,59313
6.64953,53418
6.65213,49594
6.65473,47676
6.65735,46998
6.65995,44341
6.66257,44884
6.66517,41298
6.66777,40771
6.67038,35565
6.67298,34999
6.67560,36564
6.67820,37014
6.68080,29496
6.68342,34701
6.68602,29599
6.68863,31112
6.69123,33292
6.69383,29507
6.69645,29489
6.69905,27884
6.70167,29510
6.70427,27324
6.70688,29858
6.70948,28889
6.71208,25808
6.71470,26437
6.71730,23977
6.71992,25914
6.72252,25426
6.72512,24466
6.72773,24977
6.73033,25564
6.73295,26129
6.73555,25096
6.73815,25693
6.74077,26976
6.74337,28089
6.74598,25188
6.74858,24892
6.75118,24052
6.75380,25170
6.75640,23278
6.75902,23815
6.76162,23814
6.76422,23645
6.76683,24511
6.76943,24329
6.77205,23746
6.77465,23742
6.77725,22403
6.77987,24561
6.78247,22525
6.78508,23387
6.78768,21780
6.79030,23077
6.79290,21830
6.79550,21668
6.79812,21496
6.80072,21621
6.80333,20739
6.80593,21748
6.80853,21418
6.81115,20638
6.81375,21129
6.81637,22713
6.81897,18201
6.82157,22198
6.82418,20552
6.82678,20332
6.82940,20305
6.83200,20048
6.83460,21329
6.83722,21576
6.83982,21765
6.84243,20141
6.84503,19489
6.84763,20890
6.85025,21022
6.85285,20860
6.85547,25847
6.85807,30310
6.86067,44694
6.86328,66324
6.86588,79492
6.86850,83619
6.87110,70823
6.87372,53335
6.87632,42245
6.87892,31219
6.88153,28086
6.88413,27181
6.88675,24642
6.88935,24939
6.89195,23050
6.89457,24074
6.89717,24670
6.89978,24606
6.90238,21040
6.90498,23754
6.90760,24861
6.91020,25511
6.91282,21823
6.91542,23090
6.91802,23198
6.92063,19607
6.92323,23858
6.92585,23127
6.92845,21720
6.93105,25909
6.93367,28149
6.93627,30048
6.93888,31237
6.94148,32245
6.94408,27218
6.94670,24214
6.94930,22612
6.95192,25367
6.95452,27185
6.95713,26470
6.95973,23702
6.96233,25736
6.96495,22082
6.96755,24317
6.97017,23396
6.97277,22276
6.97537,21934
6.97798,21416
6.98058,21619
6.98320,20818
6.98580,21369
6.98840,21851
6.99102,21949
6.99362,21683
6.99623,21565
6.99883,20976
7.00143,21468
7.00405,23128
7.00665,21965
7.00927,22923
7.01187,22142
7.01447,20869
7.01708,21685
7.01968,22729
7.02230,19773
7.02490,21090
7.02750,23440
7.03012,21453
7.03272,21159
7.03533,21894
7.03793,20759
7.04055,19662
7.04315,21553
7.04575,23654
7.04837,26809
7.05097,27815
7.05358,26704
7.05618,28473
7.05878,25134
7.06140,25165
7.06400,22985
7.06662,22058
7.06922,20435
7.07182,22506
7.07443,23138
7.07703,20549
7.07965,21577
7.08225,24023
7.08485,22129
7.08747,22879
7.09007,21218
7.09268,22956
7.09528,21033
7.09788,19438
7.10050,21881
7.10310,20336
7.10572,20342
7.10832,19712
7.11092,22854
7.11353,20990
7.11613,20669
7.11875,20858
7.12135,21916
7.12397,22105
7.12657,22207
7.12917,21335
7.13178,22635
7.13438,21599
7.13700,22371
7.13960,22081
7.14220,22074
7.14482,20154
7.14742,20679
7.15003,20205
7.15263,23519
7.15523,21796
7.15785,21015
7.16045,23083
7.16307,21288
7.16567,18968
7.16827,23244
7.17088,21731
7.17348,21330
7.17610,18989
7.17870,20740
7.18130,21049
7.18392,21131
7.18652,21935
7.18913,22020
7.19173,22898
7.19433,21003
7.19695,20838
7.19955,21319
7.20217,19486
7.20477,20616
7.20738,23539
7.20998,24406
7.21258,26306
7.21520,29160
7.21780,27158
7.22042,27655
7.22302,24766
7.22562,21500
7.22823,23587
7.23083,22189
7.23345,22454
7.23605,22034
7.23865,22824
7.24127,23437
7.24387,22467
7.24648,22158
7.24908,22259
7.25168,22410
7.25430,22277
7.25690,22811
7.25952,22329
7.26212,22831
7.26472,22383
7.26733,22381
7.26993,21615
7.27255,21076
7.27515,21903
7.27775,21914
7.28037,21732
7.28297,23552
7.28558,22408
7.28818,21532
7.29080,23015
7.29340,21203
7.29600,21933
7.29862,20620
7.30122,20432
7.30383,24286
7.30643,22253
7.30903,20490
7.31165,22887
7.31425,22864
7.31687,25169
7.31947,23005
7.32207,23016
7.32468,25235
7.32728,25021
7.32990,21107
7.33250,23649
7.33510,22746
7.33772,24403
7.34032,21364
7.34293,21711
7.34553,23120
7.34813,23026
7.35075,23646
7.35335,25006
7.35597,21275
7.35857,21840
7.36117,22106
7.36378,24131
7.36638,21855
7.36900,21411
7.37160,22731
7.37422,21232
7.37682,22924
7.37942,23218
7.38203,22382
7.38463,22391
7.38725,24982
7.38985,19566
7.39245,21236
7.39507,22388
7.39767,22680
7.40028,23257
7.40288,23624
7.40548,22949
7.40810,25834
7.41070,23880
7.41332,23997
7.41592,22272
7.41852,23928
7.42113,23794
7.42373,22032
7.42635,22701
7.42895,23970
7.43155,20760
7.43417,21737
7.43677,19971
7.43938,22043
7.44198,20738
7.44458,23786
7.44720,23754
7.44980,22505
7.45242,24163
7.45502,24129
7.45763,22478
7.46023,24859
7.46283,22094
7.46545,23291
7.46805,22143
7.47067,23193
7.47327,23204
7.47587,24397
7.47848,22864
7.48108,23262
7.48370,23765
7.48630,24861
7.48890,23115
7.49152,24559
7.49412,23525
7.49673,23731
7.49933,24613
7.50193,24991
7.50455,24240
7.50715,23836
7.50977,25394
7.51237,24433
7.51497,23617
7.51758,22503
7.52018,26434
7.52280,25939
7.52540,27754
7.52800,29034
7.53062,29170
7.53322,25137
7.53583,27053
7.53843,24208
7.54105,24445
7.54365,26255
7.54625,25359
7.54887,23813
7.55147,24820
7.55408,24180
7.55668,23921
7.55928,24530
7.56190,24887
7.56450,24911
7.56712,24918
7.56972,24437
7.57232,22886
7.57493,28027
7.57753,27776
7.58015,29412
7.58275,26174
7.58535,28460
7.58797,27472
7.59057,23932
7.59318,28273
7.59578,23129
7.59838,25005
7.60100,26364
7.60360,24706
7.60622,25422
7.60882,23813
7.61142,26832
7.61403,28161
7.61663,26000
7.61925,25229
7.62185,25663
7.62447,25701
7.62707,27865
7.62967,26006
7.63228,27181
7.63488,27028
7.63750,24679
7.64010,23637
7.64270,26523
7.64532,24508
7.64792,26412
7.65053,25698
7.65313,25622
7.65573,24271
7.65835,26019
7.66095,25442
7.66357,27711
7.66617,26854
7.66877,30313
7.67138,33181
7.67398,39429
7.67660,49944
7.67920,52372
7.68180,48756
7.68442,42497
7.68702,40861
7.68963,33646
7.69223,34057
7.69483,31984
7.69745,29944
7.70005,29623
7.70267,28342
7.70527,29827
7.70788,28648
7.71048,30173
7.71308,29480
7.71570,27673
7.71830,27512
7.72092,26258
7.72352,27455
7.72612,26574
7.72873,26777
7.73133,28369
7.73395,28508
7.73655,30470
7.73915,27179
7.74177,31513
7.74437,28383
7.74698,28016
7.74958,26882
7.75218,27193
7.75480,27985
7.75740,26747
7.76002,27614
7.76262,29141
7.76522,27417
7.76783,28346
7.77043,27983
7.77305,29192
7.77565,27195
7.77825,27632
7.78087,29379
7.78347,29403
7.78608,27361
7.78868,28739
7.79130,28731
7.79390,28403
7.79650,27344
7.79912,29866
7.80172,29074
7.80433,30574
7.80693,28923
7.80953,28439
7.81215,29143
7.81475,30811
7.81737,28534
7.81997,29665
7.82257,32067
7.82518,34690
7.82778,34433
7.83040,35899
7.83300,34261
7.83560,33601
7.83822,31068
7.84082,31105
7.84343,30857
7.84603,30832
7.84863,30486
7.85125,29357
7.85385,30679
7.85647,29879
7.85907,28738
7.86167,30476
7.86428,30511
7.86688,30096
7.86950,29526
7.87210,29042
7.87472,29857
7.87732,29387
7.87992,29299
7.88253,29392
7.88513,28240
7.88775,31944
7.89035,27777
7.89295,31162
7.89557,31563
7.89817,29641
7.90078,30534
7.90338,32918
7.90598,30048
7.90860,32238
7.91120,28646
7.91382,32789
7.91642,29127
7.91902,32998
7.92163,30048
7.92423,33101
7.92685,30804
7.92945,29918
7.93205,30988
7.93467,32188
7.93727,33283
7.93988,32835
7.94248,32442
7.94508,32423
7.94770,31438
7.95030,31130
7.95292,30934
7.95552,29487
7.95813,31350
7.96073,34095
7.96333,33227
7.96595,32819
7.96855,31716
7.97117,31409
7.97377,30273
7.97637,34580
7.97898,33006
7.98158,29852
7.98420,33934
7.98680,32226
7.98940,34032
7.99202,31544
7.99462,34606
7.99723,33761
7.99983,29387
8.00243,33300
8.00505,34133
8.00765,36136
8.01027,34562
8.01287,33249
8.01547,34047
8.01808,34651
8.02068,33748
8.02330,34903
8.02590,32959
8.02850,35380
8.03112,32298
8.03372,33531
8.03633,36829
8.03893,33434
8.04155,36031
8.04415,36464
8.04675,33929
8.04937,32964
8.05197,38275
8.05458,40527
8.05718,52705
8.05978,125014
8.06240,433403
8.06500,1428220
8.06762,3922065
8.07022,7617555
8.07282,1.179066E+07
8.07543,1.514788E+07
8.07803,1.705459E+07
8.08065,1.438118E+07
8.08325,8958390
8.08585,4289721
8.08847,2076133
8.09107,1170188
8.09368,806175
8.09628,602319
8.09888,444314
8.10150,393233
8.10410,319623
8.10672,286214
8.10932,251164
8.11192,213767
8.11453,201957
8.11713,180388
8.11975,163691
8.12235,153236
8.12497,143242
8.12757,128036
8.13017,119246
8.13278,111529
8.13538,105337
8.13800,104978
8.14060,95518
8.14320,89858
8.14582,86361
8.14842,84748
8.15103,83830
8.15363,77477
8.15623,77527
8.15885,74274
8.16145,74580
8.16407,72566
8.16667,68692
8.16927,66378
8.17188,68318
8.17448,70366
8.17710,70264
8.17970,75951
8.18230,81177
8.18492,75516
8.18752,72543
8.19013,68607
8.19273,63774
8.19533,60123
8.19795,56805
8.20055,56658
8.20317,55917
8.20577,57151
8.20838,55545
8.21098,55975
8.21358,53518
8.21620,56429
8.21880,51960
8.22142,51835
8.22402,52275
8.22662,50542
8.22923,51676
8.23183,49653
8.23445,49548
8.23705,50051
8.23965,51412
8.24227,47642
8.24487,50249
8.24748,49050
8.25008,49327
8.25268,49236
8.25530,50953
8.25790,49590
8.26052,46229
8.26312,49821
8.26572,50137
8.26833,47974
8.27093,46749
8.27355,50793
8.27615,49262
8.27875,50551
8.28137,47522
8.28397,47193
8.28658,49004
8.28918,50925
8.29180,53355
8.29440,50296
8.29700,46873
8.29962,48507
8.30222,52278
8.30483,49291
8.30743,51723
8.31003,49500
8.31265,48656
8.31525,51139
8.31787,47200
8.32047,50853
8.32307,50984
8.32568,50663
8.32828,52927
8.33090,50085
8.33350,50305
8.33610,49561
8.33872,48896
8.34132,48764
8.34393,49399
8.34653,49770
8.34913,50594
8.35175,47956
8.35435,52120
8.35697,52279
8.35957,49709
8.36217,51636
8.36478,49337
8.36738,51791
8.37000,48559
8.37260,52111
8.37522,50436
8.37782,49761
8.38042,48877
8.38303,48693
8.38563,53003
8.38825,53145
8.39085,52956
8.39345,52336
8.39607,54630
8.39867,53047
8.40128,49754
8.40388,50288
8.40648,50616
8.40910,50885
8.41170,51975
8.41432,49957
8.41692,56291
8.41952,51616
8.42213,52151
8.42473,55717
8.42735,52936
8.42995,53518
8.43255,53035
8.43517,52068
8.43777,53235
8.44038,57195
8.44298,56494
8.44558,56203
8.44820,54556
8.45080,58227
8.45342,53975
8.45602,52836
8.45863,57597
8.46123,56737
8.46383,57956
8.46645,55560
8.46905,58623
8.47167,57936
8.47427,61574
8.47687,59506
8.47948,58444
8.48208,59309
8.48470,60940
8.48730,60576
8.48990,58047
8.49252,59734
8.49512,60226
8.49773,60178
8.50033,62120
8.50293,64315
8.50555,65362
8.50815,73229
8.51077,73446
8.51337,73606
8.51597,74512
8.51858,75094
8.52118,70943
8.52380,61933
8.52640,66788
8.52900,61804
8.53162,64114
8.53422,67587
8.53683,63288
8.53943,63945
8.54205,64411
8.54465,64914
8.54725,65903
8.54987,66206
8.55247,65421
8.55508,63643
8.55768,67377
8.56028,69048
8.56290,65799
8.56550,67128
8.56812,68160
8.57072,70837
8.57332,68856
8.57593,66843
8.57853,70509
8.58115,69848
8.58375,66627
8.58635,71099
8.58897,69452
8.59157,71492
8.59418,69756
8.59678,67302
8.59938,71763
8.60200,72409
8.60460,70791
8.60722,69041
8.60982,75198
8.61242,76303
8.61503,73939
8.61763,69637
8.62025,71976
8.62285,71645
8.62547,74073
8.62807,71774
8.63067,76015
8.63328,78466
8.63588,76067
8.63850,77843
8.64110,75626
8.64370,77642
8.64632,75405
8.64892,76978
8.65153,79354
8.65413,79193
8.65673,79172
8.65935,80282
8.66195,86364
8.66457,83910
8.66717,81357
8.66977,79987
8.67238,80480
8.67498,78911
8.67760,81390
8.68020,85827
8.68280,82852
8.68542,84316
8.68802,88767
8.69063,88290
8.69323,92390
8.69583,89623
8.69845,86610
8.70105,86904
8.70367,89625
8.70627,91179
8.70888,89471
8.71148,90048
8.71408,99916
8.71670,99006
8.71930,99199
8.72192,101662
8.72452,95555
8.72712,94429
8.72973,96328
8.73233,95286
8.73495,98428
8.73755,101986
8.74015,95644
8.74277,95579
8.74537,97263
8.74798,96943
8.75058,92294
8.75318,93266
8.75580,91540
8.75840,93382
8.76102,93126
8.76362,95767
8.76622,94894
8.76883,93405
8.77143,97509
8.77405,96447
8.77665,92466
8.77925,99685
8.78187,94578
8.78447,94360
8.78708,98471
8.78968,96777
8.79230,102360
8.79490,94274
8.79750,99308
8.80012,100964
8.80272,99550
8.80533,97149
8.80793,95234
8.81053,99392
8.81315,98510
8.81575,102001
8.81837,100396
8.82097,101070
8.82357,100323
8.82618,100122
8.82878,100151
8.83140,99226
8.83400,104596
8.83660,105840
8.83922,102388
8.84182,110124
8.84443,100572
8.84703,103073
8.84963,101708
8.85225,101615
8.85485,101263
8.85747,108354
8.86007,108799
8.86267,104458
8.86528,109033
8.86788,104817
8.87050,99410
8.87310,110744
8.87572,110974
8.87832,110256
8.88092,110140
8.88353,104724
8.88613,107931
8.88875,106128
8.89135,111115
8.89395,107142
8.89657,109868
8.89917,110228
8.90178,109550
8.90438,111083
8.90698,109010
8.90960,108868
8.91220,111745
8.91482,106935
8.91742,110441
8.92002,109700
8.92263,110311
8.92523,106809
8.92785,115295
8.93045,112818
8.93305,114154
8.93567,113842
8.93827,109401
8.94088,110123
8.94348,113304
8.94610,113871
8.94870,111219
8.95130,115715
8.95392,107671
8.95652,113400
8.95913,110479
8.96173,112444
8.96433,111441
8.96695,110503
8.96955,111617
8.97217,112308
8.97477,109365
8.97737,111445
8.97998,115488
8.98258,117538
8.98520,114074
8.98780,117683
8.99040,115938
8.99302,116325
8.99562,115096
8.99823,115324
9.00083,116637
9.00343,116313
9.00605,119809
9.00865,119273
9.01127,114730
9.01387,115080
9.01647,117232
9.01908,116583
9.02168,119120
9.02430,112114
9.02690,117317
9.02952,120687
9.03212,119487
9.03472,112915
9.03733,120230
9.03993,115611
9.04255,119049
9.04515,115196
9.04775,119424
9.05037,116917
9.05297,119094
9.05558,114560
9.05818,118033
9.06078,116042
9.06340,123708
9.06600,123084
9.06862,121220
9.07122,120741
9.07382,115232
9.07643,119151
9.07903,119401
9.08165,126534
9.08425,121775
9.08685,121746
9.08947,118891
9.09207,121152
9.09468,119200
9.09728,116351
9.09988,118814
9.10250,117186
9.10510,118471
9.10772,118111
9.11032,124213
9.11293,121323
9.11553,120754
9.11813,123200
9.12075,120456
9.12335,123999
9.12597,126395
9.12857,125639
9.13117,123832
9.13378,120317
9.13638,120255
9.13900,124174
9.14160,124130
9.14420,119775
9.14682,123232
9.14942,119366
9.15203,123768
9.15463,122235
9.15723,121182
9.15985,122978
9.16245,123106
9.16507,122458
9.16767,120648
9.17027,120776
9.17288,125926
9.17548,124459
9.17810,123216
9.18070,122353
9.18330,124257
9.18592,122994
9.18852,122677
9.19113,128814
9.19373,116887
9.19635,130354
9.19895,124418
9.20155,127205
9.20417,128638
9.20677,123495
9.20938,127251
9.21198,125205
9.21458,123279
9.21720,123471
9.21980,124960
9.22242,121245
9.22502,119711
9.22762,122752
9.23023,122419
9.23283,123540
9.23545,125754
9.23805,123055
9.24065,117968
9.24327,125106
9.24587,120522
9.24848,123146
9.25108,119543
9.25368,124633
9.25630,122318
9.25890,130764
9.26152,121370
9.26412,126262
9.26672,123215
9.26933,122802
9.27193,118106
9.27455,124242
9.27715,120635
9.27975,122192
9.28237,117312
9.28497,123454
9.28758,121496
9.29018,124159
9.29280,121185
9.29540,119144
9.29800,122820
9.30062,121095
9.30322,126963
9.30583,123383
9.30843,123438
9.31103,117246
9.31365,118234
9.31625,124984
9.31887,124449
9.32147,119837
9.32407,120659
9.32668,126029
9.32928,125747
9.33190,122577
9.33450,122961
9.33710,122871
9.33972,119189
9.34232,119932
9.34493,121451
9.34753,118313
9.35013,124649
9.35275,121719
9.35535,124335
9.35797,120342
9.36057,123265
9.36317,125533
9.36578,121805
9.36838,124739
9.37100,122246
9.37360,125932
9.37622,124551
9.37882,123310
9.38142,126730
9.38403,117551
9.38663,119785
9.38925,116739
9.39185,125940
9.39445,122602
9.39707,123263
9.39967,121849
9.40228,117511
9.40488,116284
9.40748,122139
9.41010,118720
9.41270,120476
9.41532,119777
9.41792,123766
9.42052,121464
9.42313,122954
9.42573,125715
9.42835,120608
9.43095,122597
9.43355,119220
9.43617,124177
9.43877,117300
9.44138,119191
9.44398,123024
9.44658,121482
9.44920,124128
9.45180,125531
9.45442,125021
9.45702,122545
9.45963,121625
9.46223,122245
9.46483,119622
9.46745,124842
9.47005,120420
9.47267,122045
9.47527,123429
9.47787,125497
9.48048,122557
9.48308,119178
9.48570,124068
9.48830,120418
9.49090,115215
9.49352,126802
9.49612,123344
9.49873,115591
9.50133,122252
9.50393,122803
9.50655,122068
9.50915,121737
9.51177,123086
9.51437,119594
9.51697,122423
9.51958,121570
9.52218,127431
9.52480,121066
9.52740,118105
9.53000,122162
9.53262,120404
9.53522,116756
9.53783,119134
9.54043,127392
9.54305,122088
9.54565,120666
9.54825,123991
9.55087,121937
9.55347,122337
9.55608,124942
9.55868,126260
9.56128,123383
9.56390,122065
9.56650,120827
9.56912,125177
9.57172,123483
9.57432,122905
9.57693,121745
9.57953,121811
9.58215,124312
9.58475,121245
9.58735,122130
9.58997,120477
9.59257,119427
9.59518,123394
9.59778,119980
9.60038,123393
9.60300,119557
9.60560,125700
9.60822,120146
9.61082,124435
9.61342,121024
9.61603,121055
9.61863,124563
9.62125,123176
9.62385,121429
9.62647,124506
9.62907,119909
9.63167,122543
9.63428,119761
9.63688,127008
9.63950,120256
9.64210,122693
9.64470,117553
9.64732,120336
9.64992,124960
9.65253,120186
9.65513,121617
9.65773,121875
9.66035,119387
9.66295,119874
9.66557,122522
9.66817,124070
9.67077,121747
9.67338,123634
9.67598,120423
9.67860,121787
9.68120,121262
9.68380,122820
9.68642,122679
9.68902,119523
9.69163,123798
9.69423,125167
9.69683,121712
9.69945,123285
9.70205,124578
9.70467,123393
9.70727,121644
9.70988,119033
9.71248,122653
9.71508,119637
9.71770,123335
9.72030,114747
9.72292,119160
9.72552,124523
9.72812,125923
9.73073,126612
9.73333,121001
9.73595,119500
9.73855,122131
9.74115,121419
9.74377,122360
9.74637,128703
9.74898,121637
9.75158,120851
9.75418,120117
9.75680,121439
9.75940,120867
9.76202,117266
9.76462,120707
9.76722,119129
9.76983,122399
9.77243,120511
9.77505,122607
9.77765,122898
9.78025,124864
9.78287,122340
9.78547,121260
9.78808,126383
9.79068,126797
9.79330,123252
9.79590,123977
9.79850,122888
9.80112,122058
9.80372,123207
9.80633,119614
9.80893,126872
9.81153,122618
9.81415,120509
9.81675,121344
9.81937,121791
9.82197,121987
9.82457,123085
9.82718,122313
9.82978,117271
9.83240,120522
9.83500,119285
9.83760,125563
9.84022,122951
9.84282,119199
9.84543,124477
9.84803,123296
9.85063,122656
9.85325,118996
9.85585,123767
9.85847,121307
9.86107,121294
9.86367,127182
9.86628,122925
9.86888,121447
9.87150,121955
9.87410,121767
9.87672,121835
9.87932,126347
9.88192,120154
9.88453,121739
9.88713,123702
9.88975,118942
9.89235,120660
9.89495,119491
9.89757,123954
9.90017,123696
9.90278,122620
9.90538,122141
9.90798,120933
9.91060,127031
9.91320,122163
9.91582,127446
9.91842,122535
9.92102,124578
9.92363,120033
9.92623,123111
9.92885,123717
9.93145,118205
9.93405,123030
9.93667,120707
9.93927,125442
9.94188,124645
9.94448,125784
9.94708,121091
9.94970,126803
9.95230,118700
9.95492,122414
9.95752,122015
9.96013,121830
9.96273,118042
9.96533,120470
9.96795,122663
9.97055,118820
9.97317,121282
9.97577,121192
9.97837,126023
9.98098,122275
9.98358,120278
9.98620,118204
9.98880,121449
9.99140,121919
9.99402,120435
9.99662,118326
9.99923,127694
10.00183,126836
10.00443,125259
10.00705,121497
10.00965,119565
10.01227,117786
10.01487,124797
10.01747,122629
10.02008,125961
10.02268,125427
10.02530,122699
10.02790,116658
10.03052,124145
10.03312,123782
10.03572,119390
10.03833,124492
10.04093,121826
10.04355,124242
10.04615,119518
10.04875,124151
10.05137,121964
10.05397,121602
10.05658,122511
10.05918,120086
10.06178,120577
10.06440,123361
10.06700,120594
10.06962,122598
10.07222,119204
10.07482,123877
10.07743,117707
10.08003,125303
10.08265,124540
10.08525,121549
10.08785,120833
10.09047,123864
10.09307,124355
10.09568,123029
10.09828,124210
10.10088,124972
10.10350,123300
10.10610,124150
10.10872,123528
10.11132,117538
10.11392,122425
10.11653,120900
10.11913,124696
10.12175,120239
10.12435,123858
10.12697,124896
10.12957,123398
10.13217,123308
10.13478,124500
10.13738,121145
10.14000,119064
10.14260,120572
10.14520,119610
10.14782,124098
10.15042,123887
10.15303,121659
10.15563,123506
10.15823,124159
10.16085,121503
10.16345,123780
10.16607,126235
10.16867,124573
10.17127,120767
10.17388,124949
10.17648,120192
10.17910,122822
10.18170,122019
10.18430,120673
10.18692,122240
10.18952,123602
10.19213,118774
10.19473,123166
10.19733,123529
10.19995,121679
10.20255,121892
10.20517,124592
10.20777,120591
10.21038,119458
10.21298,124285
10.21558,122105
10.21820,122496
10.22080,124181
10.22342,123522
10.22602,123057
10.22862,123893
10.23123,122107
10.23383,122352
10.23645,119116
10.23905,119434
10.24165,119196
10.24427,121958
10.24687,125458
10.24948,124935
10.25208,121863
10.25468,119973
10.25730,124064
10.25990,122809
10.26252,121272
10.26512,126572
10.26772,123383
10.27033,123828
10.27293,124047
10.27555,125418
10.27815,122671
10.28075,122458
10.28337,127206
10.28597,122666
10.28858,122946
10.29118,116752
10.29380,121117
10.29640,118050
10.29900,125775
10.30162,120215
10.30422,119533
10.30683,127266
10.30943,127930
10.31203,120872
10.31465,118745
10.31725,127161
10.31987,117301
10.32247,120307
10.32507,122196
10.32768,125155
10.33028,118636
10.33290,124852
10.33550,117167
10.33810,120221
10.34072,125480
10.34332,119829
10.34593,122132
10.34853,124951
10.35113,120791
10.35375,122044
10.35635,119656
10.35897,121192
10.36157,126119
10.36417,121911
10.36678,123944
10.36938,121105
10.37200,123694
10.37460,121705
10.37722,123611
10.37982,127560
10.38242,123574
10.38503,124001
10.38763,123627
10.39025,126440
10.39285,123598
10.39545,126018
10.39807,116117
10.40067,119585
10.40328,122526
10.40588,129277
10.40848,123561
10.41110,125060
10.41370,119572
10.41632,124911
10.41892,122925
10.42152,123716
10.42413,124181
10.42673,124472
10.42935,123020
10.43195,125504
10.43455,125926
10.43717,125930
10.43977,121673
10.44238,120450
10.44498,116753
10.44758,124324
10.45020,121823
10.45280,125277
10.45542,124680
10.45802,123327
10.46063,122563
10.46323,120964
10.46583,123578
10.46845,123422
10.47105,125624
10.47367,127624
10.47627,119368
10.47887,117331
10.48148,124091
10.48408,123981
10.48670,124592
10.48930,120669
10.49190,122934
10.49452,121807
10.49712,124273
10.49973,126302
10.50233,123340
10.50493,122539
10.50755,120831
10.51015,124241
10.51277,119750
10.51537,121526
10.51797,119557
10.52058,115400
10.52318,123584
10.52580,121841
10.52840,124497
10.53100,118895
10.53362,123812
10.53622,125027
10.53883,121124
10.54143,124126
10.54405,122679
10.54665,124254
10.54925,124201
10.55187,122384
10.55447,121510
10.55708,122773
10.55968,121494
10.56228,123190
10.56490,121154
10.56750,124463
10.57012,124108
10.57272,120636
10.57532,119301
10.57793,123710
10.58053,120790
10.58315,123456
10.58575,119449
10.58835,123074
10.59097,125372
10.59357,120996
10.59618,121741
10.59878,120674
10.60138,121199
10.60400,119234
10.60660,124804
10.60922,124872
10.61182,128158
10.61442,118962
10.61703,118773
10.61963,124168
10.62225,122080
10.62485,120517
10.62747,125302
10.63007,122470
10.63267,119019
10.63528,120308
10.63788,125975
10.64050,121778
10.64310,123007
10.64570,128448
10.64832,124413
10.65092,122195
10.65353,119621
10.65613,118400
10.65873,119344
10.66135,123193
