D:\data\overige2021\rk\20200201rk_cocacase28x\B039728.D Mon Feb 01 21:41:27 2021
Start of data points
1.58983,10252
1.59243,8123
1.59505,9933
1.59765,9891
1.60025,10521
1.60287,10825
1.60547,9344
1.60808,10121
1.61068,8675
1.61328,10937
1.61590,9828
1.61850,9842
1.62112,9791
1.62372,9269
1.62632,9673
1.62893,9562
1.63153,8564
1.63415,9564
1.63675,10609
1.63935,9682
1.64197,8403
1.64457,9969
1.64718,9921
1.64978,9357
1.65238,9847
1.65500,10433
1.65760,9059
1.66022,8198
1.66282,7798
1.66543,8387
1.66803,7139
1.67063,8586
1.67325,8572
1.67585,9235
1.67847,7421
1.68107,7322
1.68367,9349
1.68628,8952
1.68888,8294
1.69150,8039
1.69410,8719
1.69670,8682
1.69932,9108
1.70192,8168
1.70453,7722
1.70713,7728
1.70973,7685
1.71235,8636
1.71495,8155
1.71757,8344
1.72017,7178
1.72277,6362
1.72538,8205
1.72798,8217
1.73060,8411
1.73320,8904
1.73580,7555
1.73842,6704
1.74102,7393
1.74363,8204
1.74623,6668
1.74885,7789
1.75145,8499
1.75405,7801
1.75667,6702
1.75927,6074
1.76188,7916
1.76448,7810
1.76708,6101
1.76970,7029
1.77230,7444
1.77492,7822
1.77752,6390
1.78012,6878
1.78273,6530
1.78533,6651
1.78795,7484
1.79055,7265
1.79315,6770
1.79577,7170
1.79837,7008
1.80098,7408
1.80358,6833
1.80618,6958
1.80880,6784
1.81140,6354
1.81402,6317
1.81662,7076
1.81922,6860
1.82183,7035
1.82443,7655
1.82705,4820
1.82965,6029
1.83227,7301
1.83487,5608
1.83747,6423
1.84008,5408
1.84268,5707
1.84530,6735
1.84790,5805
1.85050,7833
1.85312,6867
1.85572,5759
1.85833,6720
1.86093,5867
1.86353,6198
1.86615,6750
1.86875,7024
1.87137,7034
1.87397,6103
1.87657,5099
1.87918,6746
1.88178,6191
1.88440,4921
1.88700,5547
1.88960,5336
1.89222,5348
1.89482,6994
1.89743,6330
1.90003,5891
1.90263,6737
1.90525,6425
1.90785,5727
1.91047,7026
1.91307,5941
1.91568,5626
1.91828,6150
1.92088,7170
1.92350,6206
1.92610,6075
1.92872,5754
1.93132,6922
1.93392,5054
1.93653,6158
1.93913,5040
1.94175,5708
1.94435,6479
1.94695,5533
1.94957,5814
1.95217,5618
1.95478,5045
1.95738,5756
1.95998,6315
1.96260,6576
1.96520,5584
1.96782,5443
1.97042,5250
1.97302,5315
1.97563,4263
1.97823,4798
1.98085,6776
1.98345,4301
1.98605,5508
1.98867,5547
1.99127,5319
1.99388,4606
1.99648,6080
1.99910,5511
2.00170,5127
2.00430,5455
2.00692,5181
2.00952,5473
2.01213,5376
2.01473,5383
2.01733,6411
2.01995,5304
2.02255,5122
2.02517,5763
2.02777,5786
2.03037,5902
2.03298,5146
2.03558,5441
2.03820,6014
2.04080,5345
2.04340,5953
2.04602,7489
2.04862,7501
2.05123,6964
2.05383,6867
2.05643,7463
2.05905,6797
2.06165,6474
2.06427,6304
2.06687,6523
2.06947,7916
2.07208,5750
2.07468,6726
2.07730,6189
2.07990,6298
2.08252,5782
2.08512,7182
2.08772,6104
2.09033,5440
2.09293,5449
2.09555,4660
2.09815,5713
2.10075,4528
2.10337,5234
2.10597,5144
2.10858,5260
2.11118,5332
2.11378,6702
2.11640,5033
2.11900,5471
2.12162,5249
2.12422,4528
2.12682,6473
2.12943,5543
2.13203,5188
2.13465,6648
2.13725,5303
2.13985,5354
2.14247,4450
2.14507,4875
2.14768,4813
2.15028,4177
2.15288,5250
2.15550,5348
2.15810,5020
2.16072,5944
2.16332,6013
2.16593,4770
2.16853,5286
2.17113,5184
2.17375,5432
2.17635,5591
2.17897,4936
2.18157,6043
2.18417,5694
2.18678,6781
2.18938,5302
2.19200,5133
2.19460,5234
2.19720,3997
2.19982,4658
2.20242,5333
2.20503,4431
2.20763,4190
2.21023,6564
2.21285,4666
2.21545,6515
2.21807,5053
2.22067,4611
2.22327,3849
2.22588,5137
2.22848,4878
2.23110,5707
2.23370,4688
2.23630,4710
2.23892,4190
2.24152,4582
2.24413,5675
2.24673,5570
2.24935,4296
2.25195,5368
2.25455,5931
2.25717,4391
2.25977,4145
2.26238,5151
2.26498,5623
2.26758,4339
2.27020,4765
2.27280,4688
2.27542,5008
2.27802,5083
2.28062,4993
2.28323,5189
2.28583,6730
2.28845,4892
2.29105,5284
2.29365,5910
2.29627,4376
2.29887,5442
2.30148,4625
2.30408,3973
2.30668,6077
2.30930,4397
2.31190,4830
2.31452,3772
2.31712,5113
2.31972,4797
2.32233,4752
2.32493,5318
2.32755,4933
2.33015,4870
2.33277,4274
2.33537,5188
2.33797,4705
2.34058,5210
2.34318,4034
2.34580,5147
2.34840,4128
2.35100,4774
2.35362,4772
2.35622,4537
2.35883,5123
2.36143,5171
2.36403,4930
2.36665,4806
2.36925,6718
2.37187,3896
2.37447,3940
2.37707,4188
2.37968,3955
2.38228,5399
2.38490,4477
2.38750,4552
2.39010,4749
2.39272,4351
2.39532,4824
2.39793,4475
2.40053,4139
2.40313,4560
2.40575,4032
2.40835,4614
2.41097,4894
2.41357,5427
2.41618,5423
2.41878,5670
2.42138,4643
2.42400,3743
2.42660,4379
2.42922,5243
2.43182,4189
2.43442,4987
2.43703,4812
2.43963,5018
2.44225,5303
2.44485,4773
2.44745,5608
2.45007,4738
2.45267,6363
2.45528,7255
2.45788,6635
2.46048,8251
2.46310,8225
2.46570,8246
2.46832,6939
2.47092,6739
2.47352,7218
2.47613,8233
2.47873,6724
2.48135,6575
2.48395,5601
2.48655,6105
2.48917,6027
2.49177,6469
2.49438,5315
2.49698,5372
2.49960,4638
2.50220,5911
2.50480,4951
2.50742,5010
2.51002,5104
2.51263,4707
2.51523,4489
2.51783,5214
2.52045,5962
2.52305,4985
2.52567,5765
2.52827,5264
2.53087,4442
2.53348,4582
2.53608,5501
2.53870,5197
2.54130,6067
2.54390,4048
2.54652,4417
2.54912,5733
2.55173,4511
2.55433,5241
2.55693,4702
2.55955,4822
2.56215,4959
2.56477,5343
2.56737,4170
2.56997,4658
2.57258,4676
2.57518,4669
2.57780,5081
2.58040,5550
2.58302,4641
2.58562,5030
2.58822,4838
2.59083,5215
2.59343,4293
2.59605,4062
2.59865,5755
2.60125,4520
2.60387,4636
2.60647,4491
2.60908,4325
2.61168,5906
2.61428,4320
2.61690,5639
2.61950,5828
2.62212,4582
2.62472,4974
2.62732,4548
2.62993,5696
2.63253,4273
2.63515,5493
2.63775,5012
2.64035,3980
2.64297,5183
2.64557,4678
2.64818,4339
2.65078,5165
2.65338,4672
2.65600,5275
2.65860,5155
2.66122,4316
2.66382,6195
2.66643,5080
2.66903,4489
2.67163,4460
2.67425,4005
2.67685,4818
2.67947,3908
2.68207,4238
2.68467,4126
2.68728,3799
2.68988,4322
2.69250,4879
2.69510,5151
2.69770,4656
2.70032,5004
2.70292,5097
2.70553,4072
2.70813,3891
2.71073,5249
2.71335,4028
2.71595,4391
2.71857,4123
2.72117,4401
2.72377,4701
2.72638,3924
2.72898,6038
2.73160,4900
2.73420,5077
2.73680,5179
2.73942,4431
2.74202,4970
2.74463,4208
2.74723,3912
2.74985,4284
2.75245,4053
2.75505,4358
2.75767,3248
2.76027,4341
2.76288,4624
2.76548,4172
2.76808,3951
2.77070,3991
2.77330,5507
2.77592,4829
2.77852,3707
2.78112,4969
2.78373,3488
2.78633,5235
2.78895,4466
2.79155,4253
2.79415,4501
2.79677,3867
2.79937,4239
2.80198,5919
2.80458,4379
2.80718,4765
2.80980,4571
2.81240,4700
2.81502,4502
2.81762,4312
2.82022,4148
2.82283,5101
2.82543,4974
2.82805,4469
2.83065,4372
2.83327,4588
2.83587,4165
2.83847,4201
2.84108,3999
2.84368,4359
2.84630,4839
2.84890,4645
2.85150,5201
2.85412,4415
2.85672,4086
2.85933,4743
2.86193,3671
2.86453,4506
2.86715,3761
2.86975,3418
2.87237,5216
2.87497,4241
2.87757,5774
2.88018,4366
2.88278,4450
2.88540,3772
2.88800,4242
2.89060,5215
2.89322,4436
2.89582,4729
2.89843,4646
2.90103,4329
2.90363,5771
2.90625,5350
2.90885,3740
2.91147,3988
2.91407,4753
2.91668,4880
2.91928,4571
2.92188,4672
2.92450,3841
2.92710,4552
2.92972,4306
2.93232,4929
2.93492,5231
2.93753,4099
2.94013,4062
2.94275,4462
2.94535,4447
2.94795,4593
2.95057,3938
2.95317,4994
2.95578,5073
2.95838,4019
2.96098,5188
2.96360,3730
2.96620,4255
2.96882,3943
2.97142,4857
2.97402,6619
2.97663,6170
2.97923,5669
2.98185,5572
2.98445,5044
2.98705,3932
2.98967,5548
2.99227,3577
2.99488,3950
2.99748,4695
3.00010,4067
3.00270,5173
3.00530,5020
3.00792,4523
3.01052,4392
3.01313,3767
3.01573,4660
3.01833,3780
3.02095,4209
3.02355,4058
3.02617,5133
3.02877,3502
3.03137,5360
3.03398,4517
3.03658,4950
3.03920,5870
3.04180,3810
3.04440,4250
3.04702,4101
3.04962,5073
3.05223,4411
3.05483,5003
3.05743,4596
3.06005,4606
3.06265,4764
3.06527,4950
3.06787,4864
3.07047,4762
3.07308,2908
3.07568,4273
3.07830,4421
3.08090,3763
3.08352,4084
3.08612,4670
3.08872,3556
3.09133,5271
3.09393,4470
3.09655,4740
3.09915,5303
3.10175,4206
3.10437,4311
3.10697,3985
3.10958,5027
3.11218,5399
3.11478,6175
3.11740,10152
3.12000,13902
3.12262,18080
3.12522,19543
3.12782,24912
3.13043,25025
3.13303,21980
3.13565,21123
3.13825,17688
3.14085,16767
3.14347,16470
3.14607,13733
3.14868,14544
3.15128,11953
3.15388,10628
3.15650,10421
3.15910,9823
3.16172,10007
3.16432,9554
3.16693,9647
3.16953,6866
3.17213,9482
3.17475,8904
3.17735,8832
3.17997,7027
3.18257,7763
3.18517,6653
3.18778,7099
3.19038,6768
3.19300,8787
3.19560,7687
3.19820,7580
3.20082,5911
3.20342,5657
3.20603,6508
3.20863,6558
3.21123,5584
3.21385,6781
3.21645,6707
3.21907,6905
3.22167,7438
3.22427,6419
3.22688,5470
3.22948,7405
3.23210,5878
3.23470,5103
3.23730,6461
3.23992,6600
3.24252,6109
3.24513,6474
3.24773,5797
3.25035,5885
3.25295,6831
3.25555,3617
3.25817,5887
3.26077,4537
3.26338,5775
3.26598,5765
3.26858,5616
3.27120,7040
3.27380,6146
3.27642,6592
3.27902,6260
3.28162,6386
3.28423,6237
3.28683,6042
3.28945,5280
3.29205,6288
3.29465,5154
3.29727,5204
3.29987,6175
3.30248,4307
3.30508,6189
3.30768,4894
3.31030,4725
3.31290,5145
3.31552,5354
3.31812,6341
3.32072,6512
3.32333,4714
3.32593,6788
3.32855,4942
3.33115,5671
3.33377,5693
3.33637,4119
3.33897,5147
3.34158,4184
3.34418,4554
3.34680,5412
3.34940,5863
3.35200,5005
3.35462,5109
3.35722,4997
3.35983,5487
3.36243,5374
3.36503,5467
3.36765,5230
3.37025,4338
3.37287,4548
3.37547,5116
3.37807,4641
3.38068,3141
3.38328,4430
3.38590,5178
3.38850,5486
3.39110,6102
3.39372,6504
3.39632,7033
3.39893,7951
3.40153,8374
3.40413,8352
3.40675,6226
3.40935,7777
3.41197,6482
3.41457,6086
3.41718,7063
3.41978,5783
3.42238,6628
3.42500,6340
3.42760,6309
3.43022,6683
3.43282,5651
3.43542,6155
3.43803,6249
3.44063,6163
3.44325,6323
3.44585,5691
3.44845,5969
3.45107,5931
3.45367,5318
3.45628,4869
3.45888,4991
3.46148,5863
3.46410,5786
3.46670,6111
3.46932,5960
3.47192,5381
3.47452,5475
3.47713,4577
3.47973,4664
3.48235,6520
3.48495,5147
3.48755,5096
3.49017,5493
3.49277,5895
3.49538,4481
3.49798,5161
3.50060,5002
3.50320,5979
3.50580,5292
3.50842,6024
3.51102,11960
3.51363,21621
3.51623,39311
3.51883,56580
3.52145,62714
3.52405,58156
3.52667,45232
3.52927,33151
3.53187,26944
3.53448,20534
3.53708,17994
3.53970,15073
3.54230,13977
3.54490,13570
3.54752,11532
3.55012,13230
3.55273,12054
3.55533,11596
3.55793,9855
3.56055,9688
3.56315,10452
3.56577,10008
3.56837,11172
3.57097,9247
3.57358,9015
3.57618,10229
3.57880,10758
3.58140,8621
3.58402,10986
3.58662,9472
3.58922,8202
3.59183,9571
3.59443,9032
3.59705,10179
3.59965,9641
3.60225,8665
3.60487,7721
3.60747,8872
3.61008,9627
3.61268,10120
3.61528,11008
3.61790,10007
3.62050,9041
3.62312,9826
3.62572,9351
3.62832,8919
3.63093,9739
3.63353,9549
3.63615,12130
3.63875,10676
3.64135,12808
3.64397,10037
3.64657,11418
3.64918,11781
3.65178,11802
3.65438,11338
3.65700,10534
3.65960,9072
3.66222,10351
3.66482,9009
3.66743,10368
3.67003,9069
3.67263,10143
3.67525,10083
3.67785,8773
3.68047,10494
3.68307,8871
3.68567,8225
3.68828,9624
3.69088,8864
3.69350,9345
3.69610,8308
3.69870,10459
3.70132,9406
3.70392,10020
3.70653,9981
3.70913,7975
3.71173,8970
3.71435,10547
3.71695,9415
3.71957,9152
3.72217,10198
3.72477,10722
3.72738,9309
3.72998,9113
3.73260,8617
3.73520,9387
3.73780,8395
3.74042,9247
3.74302,9641
3.74563,9266
3.74823,9553
3.75085,8914
3.75345,7233
3.75605,9901
3.75867,9102
3.76127,9220
3.76388,9723
3.76648,7917
3.76908,8836
3.77170,8652
3.77430,8297
3.77692,7777
3.77952,8002
3.78212,9626
3.78473,9269
3.78733,8191
3.78995,7670
3.79255,7298
3.79515,8689
3.79777,7919
3.80037,8511
3.80298,8399
3.80558,7244
3.80818,8026
3.81080,8961
3.81340,10827
3.81602,7657
3.81862,9143
3.82122,8949
3.82383,8872
3.82643,9696
3.82905,8183
3.83165,7710
3.83427,7882
3.83687,9818
3.83947,8040
3.84208,9402
3.84468,8794
3.84730,8630
3.84990,9244
3.85250,9099
3.85512,8923
3.85772,8915
3.86033,7610
3.86293,8625
3.86553,8603
3.86815,9105
3.87075,9397
3.87337,8057
3.87597,7901
3.87857,8725
3.88118,8685
3.88378,8201
3.88640,7571
3.88900,7499
3.89160,7365
3.89422,8022
3.89682,9647
3.89943,9332
3.90203,9195
3.90463,8304
3.90725,7661
3.90985,9675
3.91247,8657
3.91507,9410
3.91768,9085
3.92028,8162
3.92288,9230
3.92550,8094
3.92810,11437
3.93072,11583
3.93332,14290
3.93592,17618
3.93853,16347
3.94113,17814
3.94375,13045
3.94635,13698
3.94895,12814
3.95157,11894
3.95417,10442
3.95678,10506
3.95938,11178
3.96198,9704
3.96460,10339
3.96720,10461
3.96982,10600
3.97242,8723
3.97502,9744
3.97763,8462
3.98023,9655
3.98285,9089
3.98545,8534
3.98805,8639
3.99067,8666
3.99327,9170
3.99588,8082
3.99848,9187
4.00110,9751
4.00370,7901
4.00630,8521
4.00892,8948
4.01152,8436
4.01413,8988
4.01673,9638
4.01933,9014
4.02195,8530
4.02455,9371
4.02717,7820
4.02977,8929
4.03237,11353
4.03498,8559
4.03758,10474
4.04020,8870
4.04280,9237
4.04540,7857
4.04802,7907
4.05062,8812
4.05323,8725
4.05583,8947
4.05843,8039
4.06105,7812
4.06365,7907
4.06627,8179
4.06887,8024
4.07147,9712
4.07408,9273
4.07668,8259
4.07930,9317
4.08190,7097
4.08452,8426
4.08712,8598
4.08972,10033
4.09233,8510
4.09493,8155
4.09755,7973
4.10015,8129
4.10275,8550
4.10537,6730
4.10797,7717
4.11058,7747
4.11318,8644
4.11578,9415
4.11840,8099
4.12100,7598
4.12362,8973
4.12622,7157
4.12882,8847
4.13143,8252
4.13403,7385
4.13665,8686
4.13925,8453
4.14185,8685
4.14447,9359
4.14707,7132
4.14968,7885
4.15228,8401
4.15490,8163
4.15750,9613
4.16010,8424
4.16272,7526
4.16532,8040
4.16793,8618
4.17053,8184
4.17313,8297
4.17575,7404
4.17835,8165
4.18097,8160
4.18357,7716
4.18617,7530
4.18878,7210
4.19138,9760
4.19400,9021
4.19660,9316
4.19920,8629
4.20182,7904
4.20442,7747
4.20703,8538
4.20963,7195
4.21223,9181
4.21485,8027
4.21745,9269
4.22007,9250
4.22267,9022
4.22527,8184
4.22788,9228
4.23048,8146
4.23310,8997
4.23570,8896
4.23832,6720
4.24092,9264
4.24352,7734
4.24613,7406
4.24873,8076
4.25135,6639
4.25395,8539
4.25655,8654
4.25917,7514
4.26177,9181
4.26438,9093
4.26698,8533
4.26958,7915
4.27220,8753
4.27480,8314
4.27742,8179
4.28002,8166
4.28262,9444
4.28523,8287
4.28783,7817
4.29045,7656
4.29305,8376
4.29565,8616
4.29827,7147
4.30087,7899
4.30348,8050
4.30608,8615
4.30868,6836
4.31130,7044
4.31390,7775
4.31652,9325
4.31912,7649
4.32173,9073
4.32433,10104
4.32693,8696
4.32955,8085
4.33215,8659
4.33477,9057
4.33737,8257
4.33997,9352
4.34258,8350
4.34518,8086
4.34780,8045
4.35040,8095
4.35300,8579
4.35562,7359
4.35822,8315
4.36083,7385
4.36343,7952
4.36603,8270
4.36865,8438
4.37125,7453
4.37387,8513
4.37647,7569
4.37907,9029
4.38168,8268
4.38428,9400
4.38690,8801
4.38950,8279
4.39210,8010
4.39472,8629
4.39732,7692
4.39993,8420
4.40253,8304
4.40515,8545
4.40775,7830
4.41035,6963
4.41297,9184
4.41557,7437
4.41818,8210
4.42078,9366
4.42338,8704
4.42600,8794
4.42860,7099
4.43122,8899
4.43382,8512
4.43642,10057
4.43903,8835
4.44163,7807
4.44425,9624
4.44685,8283
4.44945,8347
4.45207,9060
4.45467,9319
4.45728,8252
4.45988,8305
4.46248,7943
4.46510,8168
4.46770,6907
4.47032,7641
4.47292,8448
4.47552,8805
4.47813,8024
4.48073,7933
4.48335,8881
4.48595,9000
4.48857,9538
4.49117,7933
4.49377,8563
4.49638,7004
4.49898,9215
4.50160,7756
4.50420,8620
4.50680,8067
4.50942,8255
4.51202,8349
4.51463,7729
4.51723,8449
4.51983,8876
4.52245,9341
4.52505,7915
4.52767,7913
4.53027,7561
4.53287,8483
4.53548,7484
4.53808,7104
4.54070,10145
4.54330,8899
4.54590,7640
4.54852,8268
4.55112,8461
4.55373,8529
4.55633,9392
4.55893,8469
4.56155,6147
4.56415,8123
4.56677,7407
4.56937,8983
4.57198,8593
4.57458,7822
4.57718,8294
4.57980,7145
4.58240,7596
4.58502,8352
4.58762,8399
4.59022,8998
4.59283,8344
4.59543,10666
4.59805,8664
4.60065,7641
4.60325,8812
4.60587,8458
4.60847,8950
4.61108,8447
4.61368,6802
4.61628,8426
4.61890,7482
4.62150,7312
4.62412,9212
4.62672,7462
4.62932,8448
4.63193,8179
4.63453,7268
4.63715,9214
4.63975,8173
4.64235,7519
4.64497,7953
4.64757,8209
4.65018,6926
4.65278,8764
4.65540,7898
4.65800,8282
4.66060,8065
4.66322,7249
4.66582,7359
4.66843,8781
4.67103,8582
4.67363,9595
4.67625,9514
4.67885,9113
4.68147,7511
4.68407,8622
4.68667,7518
4.68928,9496
4.69188,7802
4.69450,7990
4.69710,10350
4.69970,8397
4.70232,8841
4.70492,7352
4.70753,7816
4.71013,7361
4.71273,10128
4.71535,8202
4.71795,8921
4.72057,8869
4.72317,7754
4.72577,7548
4.72838,8259
4.73098,9058
4.73360,8467
4.73620,8936
4.73882,7758
4.74142,8566
4.74402,8061
4.74663,8255
4.74923,8443
4.75185,8737
4.75445,8347
4.75705,8849
4.75967,8932
4.76227,10150
4.76488,9911
4.76748,7955
4.77008,8671
4.77270,9301
4.77530,9326
4.77792,8517
4.78052,7835
4.78312,10166
4.78573,8787
4.78833,9237
4.79095,8799
4.79355,8802
4.79615,8417
4.79877,8615
4.80137,8924
4.80398,9940
4.80658,8134
4.80918,9269
4.81180,9237
4.81440,7527
4.81702,8250
4.81962,8342
4.82223,8945
4.82483,8232
4.82743,8146
4.83005,9004
4.83265,9979
4.83527,9131
4.83787,8739
4.84047,7544
4.84308,7324
4.84568,8226
4.84830,9221
4.85090,7907
4.85350,9183
4.85612,9330
4.85872,9544
4.86133,9003
4.86393,8946
4.86653,9057
4.86915,7563
4.87175,8919
4.87437,8864
4.87697,8364
4.87957,7723
4.88218,8678
4.88478,7492
4.88740,8466
4.89000,8375
4.89260,9342
4.89522,7390
4.89782,9453
4.90043,7820
4.90303,8283
4.90565,9029
4.90825,8982
4.91085,9662
4.91347,10252
4.91607,8946
4.91868,9629
4.92128,8876
4.92388,8709
4.92650,7872
4.92910,8088
4.93172,8808
4.93432,8714
4.93692,7834
4.93953,7960
4.94213,9194
4.94475,7115
4.94735,9201
4.94995,9368
4.95257,8291
4.95517,6649
4.95778,7468
4.96038,8066
4.96298,8449
4.96560,8507
4.96820,7863
4.97082,8000
4.97342,8929
4.97602,8868
4.97863,8392
4.98123,9084
4.98385,8359
4.98645,9634
4.98907,8668
4.99167,7996
4.99427,9156
4.99688,7155
4.99948,7996
5.00210,7283
5.00470,8330
5.00730,9387
5.00992,8104
5.01252,10084
5.01513,7491
5.01773,7852
5.02033,9067
5.02295,8251
5.02555,8948
5.02817,8002
5.03077,7784
5.03337,8560
5.03598,9786
5.03858,9318
5.04120,8738
5.04380,7953
5.04640,9500
5.04902,8662
5.05162,9565
5.05423,7054
5.05683,9725
5.05943,9875
5.06205,9024
5.06465,7176
5.06727,8415
5.06987,7867
5.07248,9163
5.07508,7907
5.07768,8578
5.08030,7815
5.08290,8198
5.08552,8447
5.08812,8589
5.09072,9891
5.09333,8436
5.09593,9455
5.09855,7800
5.10115,7601
5.10375,8068
5.10637,7978
5.10897,8367
5.11158,8340
5.11418,9439
5.11678,9436
5.11940,9787
5.12200,8895
5.12462,8376
5.12722,9221
5.12982,8515
5.13243,8491
5.13503,7490
5.13765,8324
5.14025,7891
5.14285,8636
5.14547,8288
5.14807,9001
5.15068,9511
5.15328,8146
5.15590,9394
5.15850,8388
5.16110,7907
5.16372,8266
5.16632,9418
5.16893,8117
5.17153,8347
5.17413,8783
5.17675,8639
5.17935,8669
5.18197,7485
5.18457,8436
5.18717,9807
5.18978,7795
5.19238,8378
5.19500,9346
5.19760,8250
5.20020,8706
5.20282,9165
5.20542,8774
5.20803,8910
5.21063,8942
5.21323,7896
5.21585,8139
5.21845,8146
5.22107,7930
5.22367,9635
5.22627,7952
5.22888,8640
5.23148,8566
5.23410,8173
5.23670,9303
5.23932,8802
5.24192,9419
5.24452,10390
5.24713,7317
5.24973,8374
5.25235,8407
5.25495,8487
5.25755,8392
5.26017,8621
5.26277,8568
5.26538,8254
5.26798,8414
5.27058,7810
5.27320,8882
5.27580,9082
5.27842,9459
5.28102,7889
5.28362,8779
5.28623,9378
5.28883,8992
5.29145,8853
5.29405,9459
5.29665,7430
5.29927,9818
5.30187,9448
5.30448,8794
5.30708,9235
5.30968,8505
5.31230,8209
5.31490,7902
5.31752,7656
5.32012,9357
5.32273,8414
5.32533,9207
5.32793,8748
5.33055,7581
5.33315,9113
5.33577,10785
5.33837,8348
5.34097,9458
5.34358,8670
5.34618,10314
5.34880,7820
5.35140,8367
5.35400,8527
5.35662,9854
5.35922,9191
5.36183,8747
5.36443,7757
5.36703,8741
5.36965,8796
5.37225,8665
5.37487,8663
5.37747,8830
5.38007,8268
5.38268,9765
5.38528,8643
5.38790,8758
5.39050,9758
5.39310,9790
5.39572,8977
5.39832,8759
5.40093,8301
5.40353,8707
5.40615,9201
5.40875,9439
5.41135,8436
5.41397,9487
5.41657,8290
5.41918,7507
5.42178,8694
5.42438,8608
5.42700,9035
5.42960,8390
5.43222,9415
5.43482,8288
5.43742,9143
5.44003,9199
5.44263,8493
5.44525,8043
5.44785,9283
5.45045,9728
5.45307,11869
5.45567,12156
5.45828,11262
5.46088,12786
5.46348,11651
5.46610,10872
5.46870,9047
5.47132,10440
5.47392,8304
5.47652,9670
5.47913,10716
5.48173,10170
5.48435,10625
5.48695,10364
5.48957,9840
5.49217,8927
5.49477,8256
5.49738,8395
5.49998,8191
5.50260,9396
5.50520,9989
5.50780,9856
5.51042,9380
5.51302,8133
5.51563,10121
5.51823,8522
5.52083,7988
5.52345,7508
5.52605,8625
5.52867,9219
5.53127,8554
5.53387,9363
5.53648,10326
5.53908,9141
5.54170,8417
5.54430,9959
5.54690,9185
5.54952,7565
5.55212,11525
5.55473,9901
5.55733,7976
5.55993,8100
5.56255,8717
5.56515,9574
5.56777,8603
5.57037,7673
5.57298,8924
5.57558,8887
5.57818,8236
5.58080,8857
5.58340,9061
5.58602,9481
5.58862,8644
5.59122,8466
5.59383,8863
5.59643,9927
5.59905,9038
5.60165,10529
5.60425,10829
5.60687,9408
5.60947,9238
5.61208,9426
5.61468,10501
5.61728,7875
5.61990,9319
5.62250,8959
5.62512,9077
5.62772,8654
5.63032,8203
5.63293,10017
5.63553,8698
5.63815,9665
5.64075,8199
5.64335,8788
5.64597,8654
5.64857,8524
5.65118,9098
5.65378,7926
5.65640,8547
5.65900,10610
5.66160,9013
5.66422,9398
5.66682,8642
5.66943,8930
5.67203,9645
5.67463,8834
5.67725,9775
5.67985,9517
5.68247,8085
5.68507,9481
5.68767,9651
5.69028,9428
5.69288,8988
5.69550,9881
5.69810,8966
5.70070,9725
5.70332,9841
5.70592,10382
5.70853,10001
5.71113,9028
5.71373,9828
5.71635,9859
5.71895,8195
5.72157,9618
5.72417,9348
5.72677,9225
5.72938,9573
5.73198,9512
5.73460,8763
5.73720,8880
5.73982,9627
5.74242,10287
5.74502,9483
5.74763,9459
5.75023,9231
5.75285,9271
5.75545,9905
5.75805,8421
5.76067,8821
5.76327,8870
5.76588,8353
5.76848,8558
5.77108,8290
5.77370,9196
5.77630,10125
5.77892,8114
5.78152,8595
5.78412,9315
5.78673,9176
5.78933,8094
5.79195,9575
5.79455,10320
5.79715,10568
5.79977,9551
5.80237,8616
5.80498,9483
5.80758,10654
5.81018,12070
5.81280,15466
5.81540,22766
5.81802,33332
5.82062,43170
5.82323,45286
5.82583,37711
5.82843,30016
5.83105,19777
5.83365,14584
5.83627,13887
5.83887,15003
5.84147,18562
5.84408,20360
5.84668,18738
5.84930,17334
5.85190,15291
5.85450,12547
5.85712,12078
5.85972,10672
5.86233,10123
5.86493,10418
5.86753,10928
5.87015,10084
5.87275,9914
5.87537,10283
5.87797,10579
5.88057,11764
5.88318,9969
5.88578,9271
5.88840,8829
5.89100,10125
5.89360,9953
5.89622,8814
5.89882,9937
5.90143,10353
5.90403,9160
5.90665,10490
5.90925,9218
5.91185,9719
5.91447,10497
5.91707,9850
5.91968,9333
5.92228,10543
5.92488,9750
5.92750,10611
5.93010,10756
5.93272,10768
5.93532,11636
5.93792,12386
5.94053,12662
5.94313,12916
5.94575,13922
5.94835,11300
5.95095,11830
5.95357,12495
5.95617,12883
5.95878,12875
5.96138,10219
5.96398,11174
5.96660,12233
5.96920,10984
5.97182,12359
5.97442,9825
5.97702,10914
5.97963,10953
5.98223,11811
5.98485,11477
5.98745,12213
5.99007,12359
5.99267,12320
5.99527,11341
5.99788,10824
6.00048,11808
6.00310,11444
6.00570,11275
6.00830,9223
6.01092,11244
6.01352,10062
6.01613,12269
6.01873,10688
6.02133,10091
6.02395,11064
6.02655,9690
6.02917,12251
6.03177,10725
6.03437,11227
6.03698,10816
6.03958,12961
6.04220,10706
6.04480,13019
6.04740,15348
6.05002,16939
6.05262,17515
6.05523,19782
6.05783,16702
6.06043,16636
6.06305,16394
6.06565,15030
6.06827,14272
6.07087,15336
6.07348,15696
6.07608,12936
6.07868,12059
6.08130,11828
6.08390,12534
6.08652,11461
6.08912,11516
6.09172,12542
6.09433,12423
6.09693,11415
6.09955,10723
6.10215,12959
6.10475,11031
6.10737,12387
6.10997,11757
6.11258,12243
6.11518,11797
6.11778,11322
6.12040,12005
6.12300,11666
6.12562,12814
6.12822,14539
6.13082,11143
6.13343,12406
6.13603,11585
6.13865,12671
6.14125,12524
6.14385,11315
6.14647,10359
6.14907,11410
6.15168,11150
6.15428,10270
6.15690,12243
6.15950,12085
6.16210,11521
6.16472,11387
6.16732,10969
6.16993,11552
6.17253,12927
6.17513,11875
6.17775,13162
6.18035,12872
6.18297,12387
6.18557,11743
6.18817,10834
6.19078,10980
6.19338,11763
6.19600,10682
6.19860,10815
6.20120,10317
6.20382,9453
6.20642,11024
6.20903,9048
6.21163,11476
6.21423,11545
6.21685,11305
6.21945,11467
6.22207,10802
6.22467,9117
6.22727,11595
6.22988,9860
6.23248,11103
6.23510,10723
6.23770,11775
6.24032,11061
6.24292,10197
6.24552,12316
6.24813,11910
6.25073,10091
6.25335,11149
6.25595,11969
6.25855,11873
6.26117,11315
6.26377,11937
6.26638,9949
6.26898,11406
6.27158,11467
6.27420,11241
6.27680,10074
6.27942,11935
6.28202,10652
6.28462,12173
6.28723,11670
6.28983,12857
6.29245,11452
6.29505,11777
6.29765,10332
6.30027,10193
6.30287,9540
6.30548,10188
6.30808,10415
6.31068,10636
6.31330,9949
6.31590,10258
6.31852,10712
6.32112,9751
6.32373,10620
6.32633,10046
6.32893,11674
6.33155,10385
6.33415,10297
6.33677,9599
6.33937,10478
6.34197,9846
6.34458,11570
6.34718,10411
6.34980,11126
6.35240,11268
6.35500,10646
6.35762,11097
6.36022,10689
6.36283,11158
6.36543,10617
6.36803,9979
6.37065,11709
6.37325,11131
6.37587,9658
6.37847,10973
6.38107,10632
6.38368,10686
6.38628,10762
6.38890,12868
6.39150,11960
6.39410,10221
6.39672,8971
6.39932,12197
6.40193,11480
6.40453,12513
6.40715,12327
6.40975,11296
6.41235,11938
6.41497,11925
6.41757,10688
6.42018,10578
6.42278,10184
6.42538,11567
6.42800,11832
6.43060,11482
6.43322,8984
6.43582,9624
6.43842,11835
6.44103,11717
6.44363,11028
6.44625,9985
6.44885,10935
6.45145,11080
6.45407,10801
6.45667,11631
6.45928,11095
6.46188,11463
6.46448,12297
6.46710,11888
6.46970,10706
6.47232,11053
6.47492,12614
6.47752,11181
6.48013,10732
6.48273,11036
6.48535,12682
6.48795,15503
6.49057,19001
6.49317,38400
6.49577,87796
6.49838,190106
6.50098,380445
6.50360,598377
6.50620,771504
6.50880,702649
6.51142,499547
6.51402,304459
6.51663,171255
6.51923,108740
6.52183,77500
6.52445,60622
6.52705,48655
6.52967,43188
6.53227,42063
6.53487,37311
6.53748,35808
6.54008,32758
6.54270,31026
6.54530,28181
6.54790,27571
6.55052,22602
6.55312,24513
6.55573,25278
6.55833,24139
6.56093,21071
6.56355,20271
6.56615,22740
6.56877,21499
6.57137,21374
6.57398,21045
6.57658,17265
6.57918,21530
6.58180,20275
6.58440,23115
6.58702,26354
6.58962,70386
6.59222,243880
6.59483,847010
6.59743,2441549
6.60005,5960305
6.60265,1.099575E+07
6.60525,1.734808E+07
6.60787,2.376992E+07
6.61047,2.943E+07
6.61308,3.440341E+07
6.61568,3.783445E+07
6.61828,4.09078E+07
6.62090,4.084607E+07
6.62350,3.073073E+07
6.62612,1.155953E+07
6.62872,2425927
6.63132,693298
6.63393,371303
6.63653,257238
6.63915,204726
6.64175,168186
6.64435,149528
6.64697,125255
6.64957,112707
6.65218,101434
6.65478,88943
6.65740,88748
6.66000,79312
6.66260,71212
6.66522,71763
6.66782,65741
6.67043,61860
6.67303,55690
6.67563,57200
6.67825,57066
6.68085,51512
6.68347,48586
6.68607,48347
6.68867,43203
6.69128,44691
6.69388,44838
6.69650,43297
6.69910,40337
6.70170,39280
6.70432,35240
6.70692,35276
6.70953,36578
6.71213,33991
6.71473,34100
6.71735,33028
6.71995,33231
6.72257,34283
6.72517,31292
6.72777,31331
6.73038,31382
6.73298,29502
6.73560,32254
6.73820,27833
6.74082,30399
6.74342,31654
6.74602,27917
6.74863,26981
6.75123,27216
6.75385,27283
6.75645,28402
6.75905,27344
6.76167,30430
6.76427,28775
6.76688,31611
6.76948,32082
6.77208,33138
6.77470,31339
6.77730,29193
6.77992,25574
6.78252,24009
6.78512,22964
6.78773,23864
6.79033,22632
6.79295,22506
6.79555,23919
6.79815,21512
6.80077,20909
6.80337,19172
6.80598,23626
6.80858,23202
6.81118,23715
6.81380,23701
6.81640,21935
6.81902,22470
6.82162,22214
6.82423,22007
6.82683,20492
6.82943,21031
6.83205,21343
6.83465,20764
6.83727,19945
6.83987,21599
6.84247,20622
6.84508,19650
6.84768,20483
6.85030,20500
6.85290,20095
6.85550,21271
6.85812,24668
6.86072,29538
6.86333,36225
6.86593,37072
6.86853,40083
6.87115,40663
6.87375,43689
6.87637,45830
6.87897,50296
6.88157,58409
6.88418,55053
6.88678,49462
6.88940,42247
6.89200,33614
6.89460,28155
6.89722,27264
6.89982,27116
6.90243,26584
6.90503,25230
6.90765,23072
6.91025,21169
6.91285,20782
6.91547,20495
6.91807,21583
6.92068,21581
6.92328,20935
6.92588,22920
6.92850,20752
6.93110,22858
6.93372,24645
6.93632,26642
6.93892,26264
6.94153,25779
6.94413,25710
6.94675,23026
6.94935,20832
6.95195,21450
6.95457,20366
6.95717,19962
6.95978,21990
6.96238,21819
6.96498,20880
6.96760,21650
6.97020,20866
6.97282,22033
6.97542,17902
6.97802,19094
6.98063,18520
6.98323,18962
6.98585,19321
6.98845,20124
6.99107,17864
6.99367,16616
6.99627,18293
6.99888,20198
7.00148,18645
7.00410,18879
7.00670,18842
7.00930,18538
7.01192,19685
7.01452,20178
7.01713,18899
7.01973,17663
7.02233,17850
7.02495,18315
7.02755,17237
7.03017,17908
7.03277,19390
7.03537,18309
7.03798,18411
7.04058,18121
7.04320,17827
7.04580,18501
7.04840,18747
7.05102,18791
7.05362,21253
7.05623,19030
7.05883,18055
7.06143,17585
7.06405,17826
7.06665,18128
7.06927,17511
7.07187,18761
7.07448,18940
7.07708,17940
7.07968,16245
7.08230,18240
7.08490,17991
7.08752,17365
7.09012,17376
7.09272,18360
7.09533,17501
7.09793,17345
7.10055,15822
7.10315,18610
7.10575,17403
7.10837,17458
7.11097,16439
7.11358,19662
7.11618,17004
7.11878,16478
7.12140,17545
7.12400,17243
7.12662,16911
7.12922,16679
7.13182,16290
7.13443,16092
7.13703,17103
7.13965,17999
7.14225,15400
7.14485,15525
7.14747,17768
7.15007,18794
7.15268,17376
7.15528,16530
7.15790,18391
7.16050,18096
7.16310,17709
7.16572,17062
7.16832,18358
7.17093,16386
7.17353,17197
7.17613,18086
7.17875,17642
7.18135,15855
7.18397,17261
7.18657,16100
7.18917,17066
7.19178,18480
7.19438,17338
7.19700,16351
7.19960,15832
7.20220,14933
7.20482,18847
7.20742,17692
7.21003,19648
7.21263,19171
7.21523,20757
7.21785,20410
7.22045,18647
7.22307,19355
7.22567,18396
7.22827,18573
7.23088,16794
7.23348,20431
7.23610,18657
7.23870,20536
7.24132,23057
7.24392,19772
7.24652,19346
7.24913,17587
7.25173,17550
7.25435,17217
7.25695,16727
7.25955,17961
7.26217,17875
7.26477,18068
7.26738,18788
7.26998,17243
7.27258,16965
7.27520,18367
7.27780,17452
7.28042,19905
7.28302,18053
7.28562,17215
7.28823,18311
7.29083,16299
7.29345,17201
7.29605,17451
7.29865,17061
7.30127,16812
7.30387,16556
7.30648,19005
7.30908,17350
7.31168,18303
7.31430,17561
7.31690,16757
7.31952,17426
7.32212,18706
7.32473,16868
7.32733,16878
7.32993,16198
7.33255,18337
7.33515,17319
7.33777,16779
7.34037,17738
7.34297,17929
7.34558,18018
7.34818,15216
7.35080,16924
7.35340,17709
7.35600,17488
7.35862,18116
7.36122,17572
7.36383,16444
7.36643,18442
7.36903,16836
7.37165,18611
7.37425,16991
7.37687,14919
7.37947,17684
7.38207,17070
7.38468,18007
7.38728,18204
7.38990,18020
7.39250,17220
7.39510,17124
7.39772,18693
7.40032,16846
7.40293,17715
7.40553,17014
7.40815,18571
7.41075,18089
7.41335,16373
7.41597,16388
7.41857,18789
7.42118,16220
7.42378,20023
7.42638,18172
7.42900,18083
7.43160,18183
7.43422,17907
7.43682,18759
7.43942,17943
7.44203,17693
7.44463,18244
7.44725,18208
7.44985,18192
7.45245,18885
7.45507,18913
7.45767,18530
7.46028,15350
7.46288,17852
7.46548,17959
7.46810,19274
7.47070,18767
7.47332,20060
7.47592,17877
7.47852,19216
7.48113,17505
7.48373,19420
7.48635,18432
7.48895,18070
7.49157,21524
7.49417,21053
7.49677,23328
7.49938,24992
7.50198,25449
7.50460,21799
7.50720,20851
7.50980,21628
7.51242,19869
7.51502,20914
7.51763,19872
7.52023,19652
7.52283,18793
7.52545,20260
7.52805,20207
7.53067,21242
7.53327,21545
7.53587,19805
7.53848,20951
7.54108,19855
7.54370,20890
7.54630,19708
7.54890,20096
7.55152,20734
7.55412,20245
7.55673,23394
7.55933,20241
7.56193,22283
7.56455,22057
7.56715,21067
7.56977,20411
7.57237,20266
7.57498,21396
7.57758,21735
7.58018,22889
7.58280,23132
7.58540,22156
7.58802,22599
7.59062,22306
7.59322,21316
7.59583,21848
7.59843,18787
7.60105,19914
7.60365,21578
7.60625,18536
7.60887,21623
7.61147,18281
7.61408,18119
7.61668,19185
7.61928,20583
7.62190,21298
7.62450,20775
7.62712,21397
7.62972,19645
7.63232,20127
7.63493,20146
7.63753,19221
7.64015,20379
7.64275,19913
7.64535,19324
7.64797,21132
7.65057,21063
7.65318,19888
7.65578,20170
7.65840,20115
7.66100,19285
7.66360,20405
7.66622,21283
7.66882,20889
7.67143,20689
7.67403,20323
7.67663,19888
7.67925,23267
7.68185,21641
7.68447,21430
7.68707,21851
7.68967,21437
7.69228,21002
7.69488,21802
7.69750,22179
7.70010,20272
7.70270,20363
7.70532,20150
7.70792,23067
7.71053,19748
7.71313,19251
7.71573,19197
7.71835,20644
7.72095,19317
7.72357,20305
7.72617,21678
7.72877,19699
7.73138,17336
7.73398,21648
7.73660,20050
7.73920,20019
7.74182,19909
7.74442,21531
7.74702,23316
7.74963,21602
7.75223,23160
7.75485,23262
7.75745,20892
7.76005,20441
7.76267,19894
7.76527,20642
7.76788,20808
7.77048,22871
7.77308,21458
7.77570,21964
7.77830,20570
7.78092,22494
7.78352,23274
7.78612,21743
7.78873,21616
7.79133,23176
7.79395,21236
7.79655,21088
7.79915,23447
7.80177,21873
7.80437,21517
7.80698,20947
7.80958,20130
7.81218,22153
7.81480,20394
7.81740,21659
7.82002,22153
7.82262,24394
7.82523,27206
7.82783,28767
7.83043,31057
7.83305,28255
7.83565,24419
7.83827,23608
7.84087,21498
7.84347,23397
7.84608,21901
7.84868,22909
7.85130,23040
7.85390,21866
7.85650,22632
7.85912,23401
7.86172,23213
7.86433,23269
7.86693,23714
7.86953,22623
7.87215,21517
7.87475,23320
7.87737,23393
7.87997,20741
7.88257,24896
7.88518,23729
7.88778,23130
7.89040,24233
7.89300,23971
7.89560,24155
7.89822,23909
7.90082,26198
7.90343,24029
7.90603,28015
7.90865,26517
7.91125,26682
7.91385,26552
7.91647,26704
7.91907,23969
7.92168,24469
7.92428,26094
7.92688,23549
7.92950,22816
7.93210,25019
7.93472,25862
7.93732,26452
7.93992,23152
7.94253,23489
7.94513,22281
7.94775,24547
7.95035,22949
7.95295,24984
7.95557,22675
7.95817,23107
7.96078,26169
7.96338,25054
7.96598,23003
7.96860,25181
7.97120,22964
7.97382,23042
7.97642,24740
7.97902,25665
7.98163,23486
7.98423,25054
7.98685,24799
7.98945,24264
7.99207,24935
7.99467,22939
7.99727,24853
7.99988,25738
8.00248,23826
8.00510,24837
8.00770,26354
8.01030,26133
8.01292,26076
8.01552,27441
8.01813,26201
8.02073,25665
8.02333,26984
8.02595,27947
8.02855,27126
8.03117,26557
8.03377,24933
8.03637,26474
8.03898,27045
8.04158,25384
8.04420,25681
8.04680,26342
8.04940,26008
8.05202,26939
8.05462,33218
8.05723,53493
8.05983,143692
8.06243,460401
8.06505,1452785
8.06765,4005287
8.07027,8280778
8.07287,1.367069E+07
8.07548,1.801526E+07
8.07808,1.970866E+07
8.08068,1.745815E+07
8.08330,1.131497E+07
8.08590,5854682
8.08852,3033207
8.09112,1818836
8.09372,1280659
8.09633,952939
8.09893,767047
8.10155,621858
8.10415,545878
8.10675,454911
8.10937,387602
8.11197,351246
8.11458,299245
8.11718,267903
8.11978,258640
8.12240,228056
8.12500,204862
8.12762,191030
8.13022,183869
8.13282,170455
8.13543,156821
8.13803,142034
8.14065,137675
8.14325,123233
8.14585,119974
8.14847,115615
8.15107,108736
8.15368,100901
8.15628,103880
8.15890,96249
8.16150,93576
8.16410,87914
8.16672,88820
8.16932,83520
8.17193,80741
8.17453,84175
8.17713,86369
8.17975,94182
8.18235,91005
8.18497,89568
8.18757,80721
8.19017,77822
8.19278,71101
8.19538,66580
8.19800,63086
8.20060,60524
8.20320,58952
8.20582,63522
8.20842,63209
8.21103,60385
8.21363,57100
8.21623,59269
8.21885,58712
8.22145,54269
8.22407,52661
8.22667,49435
8.22927,53179
8.23188,49160
8.23448,49389
8.23710,47069
8.23970,48132
8.24232,48092
8.24492,45715
8.24752,48837
8.25013,42086
8.25273,46574
8.25535,47266
8.25795,46396
8.26055,46460
8.26317,47140
8.26577,47342
8.26838,43823
8.27098,43803
8.27358,43616
8.27620,43347
8.27880,44137
8.28142,44930
8.28402,43199
8.28662,40243
8.28923,45242
8.29183,43523
8.29445,42869
8.29705,42328
8.29965,43564
8.30227,43248
8.30487,43626
8.30748,42938
8.31008,42609
8.31268,43784
8.31530,44334
8.31790,39990
8.32052,40794
8.32312,42483
8.32573,42516
8.32833,42211
8.33093,42718
8.33355,40290
8.33615,40024
8.33877,41506
8.34137,38287
8.34397,40311
8.34658,42109
8.34918,39462
8.35180,42344
8.35440,44069
8.35700,39303
8.35962,41452
8.36222,42172
8.36483,42653
8.36743,41823
8.37003,42064
8.37265,42944
8.37525,40601
8.37787,43680
8.38047,42071
8.38307,42636
8.38568,44272
8.38828,45031
8.39090,43432
8.39350,44188
8.39610,41023
8.39872,44775
8.40132,44041
8.40393,44824
8.40653,42422
8.40915,45538
8.41175,43183
8.41435,40054
8.41697,46156
8.41957,42413
8.42218,42938
8.42478,42730
8.42738,46348
8.43000,43889
8.43260,41284
8.43522,43482
8.43782,45575
8.44042,44353
8.44303,44124
8.44563,42997
8.44825,45424
8.45085,44147
8.45345,47294
8.45607,44630
8.45867,46794
8.46128,45706
8.46388,42457
8.46648,46090
8.46910,47359
8.47170,48424
8.47432,48815
8.47692,53080
8.47952,50705
8.48213,47360
8.48473,48551
8.48735,49028
8.48995,50061
8.49257,48767
8.49517,47777
8.49777,49957
8.50038,47445
8.50298,49667
8.50560,52525
8.50820,61325
8.51080,64363
8.51342,62702
8.51602,59002
8.51863,54994
8.52123,55102
8.52383,51728
8.52645,53557
8.52905,52795
8.53167,51939
8.53427,52318
8.53687,51002
8.53948,52871
8.54208,52105
8.54470,52756
8.54730,54519
8.54990,51662
8.55252,52757
8.55512,57692
8.55773,54235
8.56033,55114
8.56293,53915
8.56555,54572
8.56815,52313
8.57077,54197
8.57337,58231
8.57598,54495
8.57858,52150
8.58118,54979
8.58380,54372
8.58640,55235
8.58902,59859
8.59162,55639
8.59422,55117
8.59683,56946
8.59943,59865
8.60205,54743
8.60465,59592
8.60725,56561
8.60987,56430
8.61247,53882
8.61508,57580
8.61768,58148
8.62028,57029
8.62290,61702
8.62550,59184
8.62812,58209
8.63072,66140
8.63332,65254
8.63593,62105
8.63853,63104
8.64115,62512
8.64375,62005
8.64635,60858
8.64897,64526
8.65157,64047
8.65418,63498
8.65678,63628
8.65940,64011
8.66200,65300
8.66460,63505
8.66722,63388
8.66982,62920
8.67243,66290
8.67503,66369
8.67763,67177
8.68025,67353
8.68285,64927
8.68547,67890
8.68807,69388
8.69067,71158
8.69328,67704
8.69588,70329
8.69850,70026
8.70110,74142
8.70370,70330
8.70632,73624
8.70892,75620
8.71153,77742
8.71413,80408
8.71673,76656
8.71935,78010
8.72195,84079
8.72457,77021
8.72717,76358
8.72977,77729
8.73238,77323
8.73498,80614
8.73760,73834
8.74020,76718
8.74282,76420
8.74542,74864
8.74802,75086
8.75063,75081
8.75323,75123
8.75585,75892
8.75845,74884
8.76105,77761
8.76367,80463
8.76627,76181
8.76888,79825
8.77148,80903
8.77408,77367
8.77670,75680
8.77930,79873
8.78192,81205
8.78452,80619
8.78712,82137
8.78973,79887
8.79233,83028
8.79495,80296
8.79755,78583
8.80015,81809
8.80277,78371
8.80537,81038
8.80798,81734
8.81058,81888
8.81318,81351
8.81580,85392
8.81840,85027
8.82102,84550
8.82362,86445
8.82623,84517
8.82883,83674
8.83143,82780
8.83405,82044
8.83665,85496
8.83927,85160
8.84187,84498
8.84447,85676
8.84708,87149
8.84968,85754
8.85230,85399
8.85490,83169
8.85750,87443
8.86012,82962
8.86272,89031
8.86533,87991
8.86793,84688
8.87053,87731
8.87315,86367
8.87575,86660
8.87837,89709
8.88097,87278
8.88357,88643
8.88618,89683
8.88878,88214
8.89140,86333
8.89400,90393
8.89660,91531
8.89922,91538
8.90182,88940
8.90443,89271
8.90703,92065
8.90965,89523
8.91225,88961
8.91485,89011
8.91747,91118
8.92007,89551
8.92268,92482
8.92528,94587
8.92788,94333
8.93050,92083
8.93310,92343
8.93572,93702
8.93832,93435
8.94092,94150
8.94353,91850
8.94613,91362
8.94875,93837
8.95135,91849
8.95395,93968
8.95657,92806
8.95917,93521
8.96178,96016
8.96438,94215
8.96698,95252
8.96960,97333
8.97220,91883
8.97482,94826
8.97742,92486
8.98002,91332
8.98263,97888
8.98523,97685
8.98785,92471
8.99045,94476
8.99307,95042
8.99567,97622
8.99827,94111
9.00088,95542
9.00348,98718
9.00610,93123
9.00870,96046
9.01130,96719
9.01392,96372
9.01652,94153
9.01913,96436
9.02173,95936
9.02433,96768
9.02695,98932
9.02955,96971
9.03217,98091
9.03477,97435
9.03737,100363
9.03998,98173
9.04258,99576
9.04520,98715
9.04780,97141
9.05040,93030
9.05302,98746
9.05562,96628
9.05823,100080
9.06083,97358
9.06343,100739
9.06605,97633
9.06865,97444
9.07127,97598
9.07387,98995
9.07648,96069
9.07908,100166
9.08168,96140
9.08430,96244
9.08690,94283
9.08952,98827
9.09212,96589
9.09472,98930
9.09733,99028
9.09993,100193
9.10255,98586
9.10515,98440
9.10775,97895
9.11037,98801
9.11297,104994
9.11558,101015
9.11818,95485
9.12078,103471
9.12340,101148
9.12600,103481
9.12862,102255
9.13122,101047
9.13382,100299
9.13643,102571
9.13903,100731
9.14165,100295
9.14425,99691
9.14685,98468
9.14947,99035
9.15207,101018
9.15468,99840
9.15728,97296
9.15990,101735
9.16250,99276
9.16510,98900
9.16772,103551
9.17032,103332
9.17293,99815
9.17553,98091
9.17813,101117
9.18075,100901
9.18335,98807
9.18597,102632
9.18857,103313
9.19117,99116
9.19378,102942
9.19638,102100
9.19900,104432
9.20160,106839
9.20420,105706
9.20682,101497
9.20942,102630
9.21203,100739
9.21463,100040
9.21723,101300
9.21985,104643
9.22245,101554
9.22507,99037
9.22767,99292
9.23027,100211
9.23288,99135
9.23548,100985
9.23810,102120
9.24070,103132
9.24332,100909
9.24592,101733
9.24852,102019
9.25113,105594
9.25373,106257
9.25635,100229
9.25895,98068
9.26155,97944
9.26417,103115
9.26677,98825
9.26938,100569
9.27198,103034
9.27458,95518
9.27720,99651
9.27980,100198
9.28242,102660
9.28502,98184
9.28762,96175
9.29023,101455
9.29283,99463
9.29545,101539
9.29805,108272
9.30065,101021
9.30327,102138
9.30587,102077
9.30848,94543
9.31108,98835
9.31368,102260
9.31630,99042
9.31890,96918
9.32152,98915
9.32412,101080
9.32673,103621
9.32933,101006
9.33193,103163
9.33455,102830
9.33715,101246
9.33977,103386
9.34237,104303
9.34497,103932
9.34758,98909
9.35018,99010
9.35280,96495
9.35540,96335
9.35800,100636
9.36062,98349
9.36322,99709
9.36583,103216
9.36843,102109
9.37103,101809
9.37365,99390
9.37625,100422
9.37887,99124
9.38147,98710
9.38407,98540
9.38668,99817
9.38928,98862
9.39190,99651
9.39450,103481
9.39710,95604
9.39972,95231
9.40232,104622
9.40493,102075
9.40753,98419
9.41015,99855
9.41275,98239
9.41535,97534
9.41797,96606
9.42057,99370
9.42318,102551
9.42578,100432
9.42838,99720
9.43100,99722
9.43360,96726
9.43622,99951
9.43882,99576
9.44142,100956
9.44403,97625
9.44663,99272
9.44925,102076
9.45185,103544
9.45445,100824
9.45707,97076
9.45967,98451
9.46228,98337
9.46488,100243
9.46748,103392
9.47010,103410
9.47270,100611
9.47532,99329
9.47792,102916
9.48052,100891
9.48313,100253
9.48573,99265
9.48835,98105
9.49095,100205
9.49357,101110
9.49617,98175
9.49877,98614
9.50138,97415
9.50398,100133
9.50660,94359
9.50920,99232
9.51180,96961
9.51442,102275
9.51702,98969
9.51963,97371
9.52223,105177
9.52483,101394
9.52745,104323
9.53005,100219
9.53267,102441
9.53527,96331
9.53787,104766
9.54048,95989
9.54308,97702
9.54570,98093
9.54830,97479
9.55090,98054
9.55352,98124
9.55612,98483
9.55873,99630
9.56133,97918
9.56393,100789
9.56655,99929
9.56915,100854
9.57177,99394
9.57437,99810
9.57698,98004
9.57958,100086
9.58218,100893
9.58480,100441
9.58740,97883
9.59002,101974
9.59262,97492
9.59522,100182
9.59783,101637
9.60043,99589
9.60305,105001
9.60565,93903
9.60825,99840
9.61087,100226
9.61347,96339
9.61608,102103
9.61868,101460
9.62128,100027
9.62390,104203
9.62650,100071
9.62912,102613
9.63172,98795
9.63432,99851
9.63693,101384
9.63953,104113
9.64215,101448
9.64475,104878
9.64735,100725
9.64997,103269
9.65257,98607
9.65518,100196
9.65778,102573
9.66040,98842
9.66300,103391
9.66560,100188
9.66822,102792
9.67082,103458
9.67343,100124
9.67603,97353
9.67863,100451
9.68125,101966
9.68385,100989
9.68647,98407
9.68907,102291
9.69167,102358
9.69428,104289
9.69688,100184
9.69950,100638
9.70210,101977
9.70470,99131
9.70732,99125
9.70992,98110
9.71253,99086
9.71513,95613
9.71773,99597
9.72035,99501
9.72295,102738
9.72557,99568
9.72817,101065
9.73077,101905
9.73338,99448
9.73598,102130
9.73860,104043
9.74120,99605
9.74382,100228
9.74642,97681
9.74902,101072
9.75163,98944
9.75423,100489
9.75685,103866
9.75945,99358
9.76205,104124
9.76467,99878
9.76727,104461
9.76988,102197
9.77248,100376
9.77508,100547
9.77770,104808
9.78030,101231
9.78292,99016
9.78552,95961
9.78812,101016
9.79073,103216
9.79333,100243
9.79595,98340
9.79855,100097
9.80115,98822
9.80377,106952
9.80637,101751
9.80898,99686
9.81158,98505
9.81418,101482
9.81680,101497
9.81940,98815
9.82202,99274
9.82462,98837
9.82723,100004
9.82983,97813
9.83243,99329
9.83505,98653
9.83765,102970
9.84027,100544
9.84287,102927
9.84547,95425
9.84808,100429
9.85068,98701
9.85330,98957
9.85590,99474
9.85850,95791
9.86112,101717
9.86372,110090
9.86633,95868
9.86893,101954
9.87153,99582
9.87415,100174
9.87675,102334
9.87937,97350
9.88197,100005
9.88457,98192
9.88718,100529
9.88978,99990
9.89240,102456
9.89500,101944
9.89760,100501
9.90022,101311
9.90282,102674
9.90543,100385
9.90803,100072
9.91065,98760
9.91325,102690
9.91585,102215
9.91847,103565
9.92107,101259
9.92368,99110
9.92628,97598
9.92888,100532
9.93150,101896
9.93410,103687
9.93672,101482
9.93932,104515
9.94192,102197
9.94453,99738
9.94713,98429
9.94975,105840
9.95235,100558
9.95495,99351
9.95757,102344
9.96017,97783
9.96278,98992
9.96538,99674
9.96798,93847
9.97060,102965
9.97320,99045
9.97582,103362
9.97842,102973
9.98102,100095
9.98363,99709
9.98623,97578
9.98885,99277
9.99145,103714
9.99407,100786
9.99667,97969
9.99927,102765
10.00188,99295
10.00448,99015
10.00710,100664
10.00970,99947
10.01230,97732
10.01492,99069
10.01752,101158
10.02013,102402
10.02273,101181
10.02533,105498
10.02795,98946
10.03055,98425
10.03317,98421
10.03577,102444
10.03837,95763
10.04098,101540
10.04358,100904
10.04620,95544
10.04880,105662
10.05140,101710
10.05402,101720
10.05662,100981
10.05923,97748
10.06183,100908
10.06443,98590
10.06705,107596
10.06965,101398
10.07227,103017
10.07487,104247
10.07748,96840
10.08008,103839
10.08268,101138
10.08530,104803
10.08790,98917
10.09052,102384
10.09312,104845
10.09572,101869
10.09833,104309
10.10093,100419
10.10355,101307
10.10615,100960
10.10875,99082
10.11137,98847
10.11397,99705
10.11658,99481
10.11918,99806
10.12178,103376
10.12440,101582
10.12700,102268
10.12962,99686
10.13222,97902
10.13482,103560
10.13743,104440
10.14003,101976
10.14265,97586
10.14525,102005
10.14785,97601
10.15047,99431
10.15307,102871
10.15568,101273
10.15828,100851
10.16090,103731
10.16350,100121
10.16610,99997
10.16872,103147
10.17132,99281
10.17393,99633
10.17653,100685
10.17913,97653
10.18175,98502
10.18435,100426
10.18697,101374
10.18957,99223
10.19217,101002
10.19478,101465
10.19738,101606
10.20000,101728
10.20260,102516
10.20520,100161
10.20782,98638
10.21042,106520
10.21303,101166
10.21563,101729
10.21823,100384
10.22085,101092
10.22345,102200
10.22607,100502
10.22867,103030
10.23127,100616
10.23388,101482
10.23648,103376
10.23910,100062
10.24170,101276
10.24432,98530
10.24692,101468
10.24952,95094
10.25213,100987
10.25473,101961
10.25735,99251
10.25995,100888
10.26255,99608
10.26517,102707
10.26777,98126
10.27038,102106
10.27298,100701
10.27558,100874
10.27820,99333
10.28080,104138
10.28342,99764
10.28602,99942
10.28862,100594
10.29123,96868
10.29383,104470
10.29645,102122
10.29905,98581
10.30165,102548
10.30427,100902
10.30687,101431
10.30948,97449
10.31208,101700
10.31468,98700
10.31730,98767
10.31990,102930
10.32252,102316
10.32512,106993
10.32773,101562
10.33033,98853
10.33293,102915
10.33555,99775
10.33815,100345
10.34077,95497
10.34337,102444
10.34597,99023
10.34858,103578
10.35118,104145
10.35380,100832
10.35640,102211
10.35900,104904
10.36162,99517
10.36422,99389
10.36683,105894
10.36943,100122
10.37203,98797
10.37465,97975
10.37725,103404
10.37987,104002
10.38247,102178
10.38507,100101
10.38768,99882
10.39028,100255
10.39290,103395
10.39550,103820
10.39810,98572
10.40072,103404
10.40332,101821
10.40593,100353
10.40853,96444
10.41115,103247
10.41375,103712
10.41635,98722
10.41897,100378
10.42157,98334
10.42418,104495
10.42678,97388
10.42938,100701
10.43200,105376
10.43460,103162
10.43722,101941
10.43982,103258
10.44242,97573
10.44503,102561
10.44763,106960
10.45025,103612
10.45285,102838
10.45545,102098
10.45807,102593
10.46067,103394
10.46328,103738
10.46588,100230
10.46848,105566
10.47110,103465
10.47370,105137
10.47632,103873
10.47892,103931
10.48152,103256
10.48413,105764
10.48673,104828
10.48935,107146
10.49195,106502
10.49457,101692
10.49717,105908
10.49977,103412
10.50238,109700
10.50498,102105
10.50760,106624
10.51020,106038
10.51280,103415
10.51542,101426
10.51802,105813
10.52063,105258
10.52323,106369
10.52583,100189
10.52845,99137
10.53105,104366
10.53367,102303
10.53627,104825
10.53887,103249
10.54148,101045
10.54408,102800
10.54670,102250
10.54930,99989
10.55190,103666
10.55452,102630
10.55712,104826
10.55973,103425
10.56233,103344
10.56493,101426
10.56755,103983
10.57015,101985
10.57277,102627
10.57537,98020
10.57798,103053
10.58058,103776
10.58318,106057
10.58580,103327
10.58840,103557
10.59102,103616
10.59362,100238
10.59622,105500
10.59883,101059
10.60143,103756
10.60405,98723
10.60665,98363
10.60925,102046
10.61187,103545
10.61447,104497
10.61708,105386
10.61968,104146
10.62228,108098
10.62490,105114
10.62750,105253
10.63012,104905
10.63272,98908
10.63532,102563
10.63793,100413
10.64053,105289
10.64315,102316
10.64575,103024
10.64835,103684
10.65097,102190
10.65357,104843
10.65618,100640
10.65878,100617
10.66140,106049
