D:\data\overige2021\rk\20200201rk_cocacase28x\B039767.D Mon Feb 01 17:31:31 2021
Start of data points
1.58973,12699
1.59233,11617
1.59495,10525
1.59755,12860
1.60017,13329
1.60277,11991
1.60537,13253
1.60798,13600
1.61058,12761
1.61320,13116
1.61580,12092
1.61840,12679
1.62102,11670
1.62362,12213
1.62623,11383
1.62883,10350
1.63143,13424
1.63405,12711
1.63665,12676
1.63927,11385
1.64187,11140
1.64447,12275
1.64708,10433
1.64968,10988
1.65230,12661
1.65490,10491
1.65750,11287
1.66012,10634
1.66272,12265
1.66533,9954
1.66793,11743
1.67053,11599
1.67315,10109
1.67575,8587
1.67837,10108
1.68097,11533
1.68358,9982
1.68618,7884
1.68878,10302
1.69140,10023
1.69400,11652
1.69662,10528
1.69922,11276
1.70182,9474
1.70443,9787
1.70703,10408
1.70965,10648
1.71225,10230
1.71485,11369
1.71747,11650
1.72007,10036
1.72268,8115
1.72528,9492
1.72788,8451
1.73050,8521
1.73310,9012
1.73572,9515
1.73832,11510
1.74092,8823
1.74353,9466
1.74613,9246
1.74875,9259
1.75135,9471
1.75395,9401
1.75657,8444
1.75917,10033
1.76178,8832
1.76438,7636
1.76700,9087
1.76960,9118
1.77220,8744
1.77482,8958
1.77742,9258
1.78003,9069
1.78263,8491
1.78523,9048
1.78785,7031
1.79045,7652
1.79307,7823
1.79567,8112
1.79827,8548
1.80088,6242
1.80348,10040
1.80610,8343
1.80870,9196
1.81130,7711
1.81392,8232
1.81652,6761
1.81913,7371
1.82173,7512
1.82433,8509
1.82695,6612
1.82955,8359
1.83217,8143
1.83477,6525
1.83737,7602
1.83998,7487
1.84258,7409
1.84520,6006
1.84780,7360
1.85042,6800
1.85302,6127
1.85562,7552
1.85823,7208
1.86083,6286
1.86345,7375
1.86605,6546
1.86865,7882
1.87127,5728
1.87387,6825
1.87648,7937
1.87908,7466
1.88168,6273
1.88430,6111
1.88690,7843
1.88952,6852
1.89212,7588
1.89472,7938
1.89733,6528
1.89993,6963
1.90255,5873
1.90515,6492
1.90775,6933
1.91037,8357
1.91297,6045
1.91558,7021
1.91818,6020
1.92078,6798
1.92340,5745
1.92600,7008
1.92862,6683
1.93122,6254
1.93383,6335
1.93643,7083
1.93903,6781
1.94165,6423
1.94425,6150
1.94687,6520
1.94947,7004
1.95207,6658
1.95468,6727
1.95728,5031
1.95990,6147
1.96250,6450
1.96510,6517
1.96772,6297
1.97032,6846
1.97293,5471
1.97553,6001
1.97813,7348
1.98075,5675
1.98335,6019
1.98597,5222
1.98857,5599
1.99117,6664
1.99378,6205
1.99638,6114
1.99900,6305
2.00160,6190
2.00420,6072
2.00682,5391
2.00942,5915
2.01203,6611
2.01463,6480
2.01725,7282
2.01985,5392
2.02245,6449
2.02507,6365
2.02767,5921
2.03028,6047
2.03288,6277
2.03548,7238
2.03810,9256
2.04070,11513
2.04332,12992
2.04592,14498
2.04852,15501
2.05113,16833
2.05373,15353
2.05635,16454
2.05895,14287
2.06155,12279
2.06417,12456
2.06677,10836
2.06938,10009
2.07198,11492
2.07458,9175
2.07720,11161
2.07980,10289
2.08242,8641
2.08502,8994
2.08762,7854
2.09023,9722
2.09283,8261
2.09545,8697
2.09805,7168
2.10067,7894
2.10327,8497
2.10587,6761
2.10848,9257
2.11108,7168
2.11370,6968
2.11630,6985
2.11890,7573
2.12152,7452
2.12412,6590
2.12673,6725
2.12933,6724
2.13193,7612
2.13455,6997
2.13715,7557
2.13977,7790
2.14237,6618
2.14497,7521
2.14758,6940
2.15018,7953
2.15280,6987
2.15540,6648
2.15800,6673
2.16062,7461
2.16322,5947
2.16583,6946
2.16843,7217
2.17103,5866
2.17365,7648
2.17625,7923
2.17887,6804
2.18147,6573
2.18408,6307
2.18668,7197
2.18928,6493
2.19190,6693
2.19450,6191
2.19712,6081
2.19972,6136
2.20232,6169
2.20493,6496
2.20753,5744
2.21015,5987
2.21275,6012
2.21535,7490
2.21797,7090
2.22057,6672
2.22318,6285
2.22578,6319
2.22838,6761
2.23100,5592
2.23360,6407
2.23622,7050
2.23882,5236
2.24142,6503
2.24403,5507
2.24663,6540
2.24925,6471
2.25185,5491
2.25445,5874
2.25707,5828
2.25967,5618
2.26228,6341
2.26488,7492
2.26750,6019
2.27010,6636
2.27270,6413
2.27532,4955
2.27792,6236
2.28053,6643
2.28313,4531
2.28573,4583
2.28835,6615
2.29095,5780
2.29357,7574
2.29617,6153
2.29877,6383
2.30138,5806
2.30398,5783
2.30660,5915
2.30920,6186
2.31180,5011
2.31442,6579
2.31702,5703
2.31963,6635
2.32223,6566
2.32483,5793
2.32745,5766
2.33005,5415
2.33267,6391
2.33527,5900
2.33787,6984
2.34048,6230
2.34308,5734
2.34570,5951
2.34830,4958
2.35092,5735
2.35352,4954
2.35612,4366
2.35873,6992
2.36133,5771
2.36395,6739
2.36655,5963
2.36915,6075
2.37177,5386
2.37437,5732
2.37698,5938
2.37958,4890
2.38218,6343
2.38480,6561
2.38740,6473
2.39002,5376
2.39262,5843
2.39522,6615
2.39783,6616
2.40043,6235
2.40305,6963
2.40565,5296
2.40825,6085
2.41087,5721
2.41347,6693
2.41608,5905
2.41868,5240
2.42128,6115
2.42390,7131
2.42650,5503
2.42912,5326
2.43172,4990
2.43433,5085
2.43693,6397
2.43953,5569
2.44215,6450
2.44475,5491
2.44737,4854
2.44997,5967
2.45257,6627
2.45518,6432
2.45778,6792
2.46040,7921
2.46300,8889
2.46560,9705
2.46822,10192
2.47082,12158
2.47343,11721
2.47603,12174
2.47863,9910
2.48125,9452
2.48385,10624
2.48647,9495
2.48907,8286
2.49167,7845
2.49428,8282
2.49688,7549
2.49950,8361
2.50210,7457
2.50470,7074
2.50732,8894
2.50992,6573
2.51253,7298
2.51513,6542
2.51775,6307
2.52035,6838
2.52295,6486
2.52557,6758
2.52817,6613
2.53078,6035
2.53338,6614
2.53598,6808
2.53860,7536
2.54120,5890
2.54382,6558
2.54642,6714
2.54902,7326
2.55163,6406
2.55423,6282
2.55685,6304
2.55945,5295
2.56205,6415
2.56467,6759
2.56727,7904
2.56988,5017
2.57248,6496
2.57508,5309
2.57770,5754
2.58030,6253
2.58292,7724
2.58552,8477
2.58812,8783
2.59073,9417
2.59333,11606
2.59595,9975
2.59855,7342
2.60117,8189
2.60377,8208
2.60637,5810
2.60898,7111
2.61158,7108
2.61420,6245
2.61680,7459
2.61940,6438
2.62202,6481
2.62462,6849
2.62723,6730
2.62983,7828
2.63243,7069
2.63505,7863
2.63765,7091
2.64027,7519
2.64287,6708
2.64547,6767
2.64808,6897
2.65068,5902
2.65330,6484
2.65590,6243
2.65850,6105
2.66112,5147
2.66372,5709
2.66633,5764
2.66893,4829
2.67153,5923
2.67415,5405
2.67675,5280
2.67937,5084
2.68197,5326
2.68458,5306
2.68718,6147
2.68978,7322
2.69240,7041
2.69500,6453
2.69762,4328
2.70022,7188
2.70282,5271
2.70543,4931
2.70803,5425
2.71065,5263
2.71325,5057
2.71585,6309
2.71847,4729
2.72107,4722
2.72368,5660
2.72628,5525
2.72888,5431
2.73150,5174
2.73410,6493
2.73672,5422
2.73932,5366
2.74192,6310
2.74453,5973
2.74713,6126
2.74975,4892
2.75235,5299
2.75495,5681
2.75757,5606
2.76017,6553
2.76278,5579
2.76538,4927
2.76800,5236
2.77060,4902
2.77320,5089
2.77582,4787
2.77842,5405
2.78103,5202
2.78363,6667
2.78623,4788
2.78885,5036
2.79145,4501
2.79407,5452
2.79667,6182
2.79927,4772
2.80188,5648
2.80448,6131
2.80710,4583
2.80970,5310
2.81230,5315
2.81492,5319
2.81752,5933
2.82013,5393
2.82273,5128
2.82533,6722
2.82795,4635
2.83055,5186
2.83317,6096
2.83577,5796
2.83837,6524
2.84098,5198
2.84358,6536
2.84620,6863
2.84880,5324
2.85142,5452
2.85402,5605
2.85662,4246
2.85923,4650
2.86183,4514
2.86445,5746
2.86705,4592
2.86965,6459
2.87227,6648
2.87487,5100
2.87748,5689
2.88008,5620
2.88268,5835
2.88530,4341
2.88790,5140
2.89052,6326
2.89312,5762
2.89572,5401
2.89833,4586
2.90093,5268
2.90355,5370
2.90615,4846
2.90875,5144
2.91137,4251
2.91397,6565
2.91658,5320
2.91918,4762
2.92178,6394
2.92440,5671
2.92700,5133
2.92962,5374
2.93222,5716
2.93483,5662
2.93743,5254
2.94003,6043
2.94265,6411
2.94525,5575
2.94787,5597
2.95047,4984
2.95307,5362
2.95568,6231
2.95828,5530
2.96090,5787
2.96350,4652
2.96610,5429
2.96872,6207
2.97132,6276
2.97393,6620
2.97653,7797
2.97913,6551
2.98175,5881
2.98435,5284
2.98697,4597
2.98957,7016
2.99217,5744
2.99478,4915
2.99738,6153
3.00000,5522
3.00260,4995
3.00520,4956
3.00782,4913
3.01042,5612
3.01303,5720
3.01563,6417
3.01825,5977
3.02085,4776
3.02345,5949
3.02607,5664
3.02867,6247
3.03128,5030
3.03388,6931
3.03648,5809
3.03910,5105
3.04170,5486
3.04432,5270
3.04692,5588
3.04952,4371
3.05213,5039
3.05473,6125
3.05735,5122
3.05995,6403
3.06255,5994
3.06517,5214
3.06777,5549
3.07038,5781
3.07298,5698
3.07558,4570
3.07820,5046
3.08080,4872
3.08342,4327
3.08602,4083
3.08862,5758
3.09123,4475
3.09383,3908
3.09645,4624
3.09905,5646
3.10167,4387
3.10427,3764
3.10687,4965
3.10948,5815
3.11208,5140
3.11470,6054
3.11730,4962
3.11990,6101
3.12252,4119
3.12512,6371
3.12773,4748
3.13033,5601
3.13293,7833
3.13555,8081
3.13815,10842
3.14077,10668
3.14337,11574
3.14597,12121
3.14858,15356
3.15118,12331
3.15380,13301
3.15640,14089
3.15900,14237
3.16162,15083
3.16422,13243
3.16683,13340
3.16943,11327
3.17203,14302
3.17465,12911
3.17725,12964
3.17987,13231
3.18247,12901
3.18508,12949
3.18768,12921
3.19028,12393
3.19290,12534
3.19550,13036
3.19812,12839
3.20072,11930
3.20332,13159
3.20593,12613
3.20853,11773
3.21115,11639
3.21375,11813
3.21635,11762
3.21897,10487
3.22157,12551
3.22418,11060
3.22678,9605
3.22938,10560
3.23200,10848
3.23460,10877
3.23722,10566
3.23982,10684
3.24242,10426
3.24503,11179
3.24763,11181
3.25025,10724
3.25285,10307
3.25547,9758
3.25807,11157
3.26067,8640
3.26328,9285
3.26588,8797
3.26850,9717
3.27110,9620
3.27370,9824
3.27632,9812
3.27892,8322
3.28153,10293
3.28413,10691
3.28673,9272
3.28935,10532
3.29195,8720
3.29457,10398
3.29717,8659
3.29977,7267
3.30238,9066
3.30498,8345
3.30760,7247
3.31020,10168
3.31280,9949
3.31542,7436
3.31802,8913
3.32063,9550
3.32323,8668
3.32583,10808
3.32845,8455
3.33105,7601
3.33367,9236
3.33627,7136
3.33888,6499
3.34148,8580
3.34408,7072
3.34670,7585
3.34930,7295
3.35192,7326
3.35452,8675
3.35712,7258
3.35973,7731
3.36233,7948
3.36495,7948
3.36755,7422
3.37015,8034
3.37277,6977
3.37537,6857
3.37798,6687
3.38058,8195
3.38318,8755
3.38580,6905
3.38840,6574
3.39102,7099
3.39362,7760
3.39622,5851
3.39883,7590
3.40143,10472
3.40405,8183
3.40665,9808
3.40925,8164
3.41187,9960
3.41447,8752
3.41708,9396
3.41968,9241
3.42230,10266
3.42490,7975
3.42750,9258
3.43012,8774
3.43272,8193
3.43533,8879
3.43793,8635
3.44053,7612
3.44315,8254
3.44575,8027
3.44837,7507
3.45097,8877
3.45357,9690
3.45618,8411
3.45878,8693
3.46140,8300
3.46400,8650
3.46660,8348
3.46922,8113
3.47182,7656
3.47443,7060
3.47703,8024
3.47963,7894
3.48225,8242
3.48485,7427
3.48747,9229
3.49007,7333
3.49267,8369
3.49528,7809
3.49788,9380
3.50050,7166
3.50310,7415
3.50572,8390
3.50832,9325
3.51092,13441
3.51353,25351
3.51613,50601
3.51875,105279
3.52135,167438
3.52395,206233
3.52657,200140
3.52917,163557
3.53178,118948
3.53438,78907
3.53698,53660
3.53960,40116
3.54220,32556
3.54482,29680
3.54742,25458
3.55002,24150
3.55263,20844
3.55523,20878
3.55785,17093
3.56045,19715
3.56305,17086
3.56567,17675
3.56827,16689
3.57088,15999
3.57348,17036
3.57608,17321
3.57870,15192
3.58130,15322
3.58392,13823
3.58652,16230
3.58913,16025
3.59173,17568
3.59433,14332
3.59695,16171
3.59955,15794
3.60217,14534
3.60477,17000
3.60737,14672
3.60998,16340
3.61258,15316
3.61520,14681
3.61780,15561
3.62040,14480
3.62302,13198
3.62562,16008
3.62823,13354
3.63083,14738
3.63343,17532
3.63605,17497
3.63865,18844
3.64127,21123
3.64387,20037
3.64647,18335
3.64908,17543
3.65168,18261
3.65430,17154
3.65690,16166
3.65950,16222
3.66212,15391
3.66472,14292
3.66733,14475
3.66993,14566
3.67255,13950
3.67515,14383
3.67775,13171
3.68037,13781
3.68297,14788
3.68558,14992
3.68818,13441
3.69078,14677
3.69340,13197
3.69600,13467
3.69862,13350
3.70122,12252
3.70382,13493
3.70643,13090
3.70903,13481
3.71165,10473
3.71425,11651
3.71685,13823
3.71947,13013
3.72207,12035
3.72468,11694
3.72728,12282
3.72988,12368
3.73250,12013
3.73510,10967
3.73772,12984
3.74032,11708
3.74292,12539
3.74553,10613
3.74813,11411
3.75075,12339
3.75335,11428
3.75597,12841
3.75857,13155
3.76117,12656
3.76378,13064
3.76638,11228
3.76900,11932
3.77160,12890
3.77420,11694
3.77682,11185
3.77942,12644
3.78203,11933
3.78463,11312
3.78723,14781
3.78985,14979
3.79245,14883
3.79507,16390
3.79767,15383
3.80027,13512
3.80288,13236
3.80548,11647
3.80810,13138
3.81070,10995
3.81330,13244
3.81592,14005
3.81852,12198
3.82113,12561
3.82373,11297
3.82633,11227
3.82895,12509
3.83155,12906
3.83417,11933
3.83677,11584
3.83938,12152
3.84198,11524
3.84458,11644
3.84720,10978
3.84980,10665
3.85242,12834
3.85502,13192
3.85762,13054
3.86023,9954
3.86283,11965
3.86545,11754
3.86805,10700
3.87065,10914
3.87327,11779
3.87587,10880
3.87848,9824
3.88108,11424
3.88368,12516
3.88630,12907
3.88890,11940
3.89152,13260
3.89412,12265
3.89672,10651
3.89933,11723
3.90193,11121
3.90455,10994
3.90715,11340
3.90975,12376
3.91237,12713
3.91497,11706
3.91758,12662
3.92018,13952
3.92280,13219
3.92540,16260
3.92800,23797
3.93062,40402
3.93322,56147
3.93583,73580
3.93843,76857
3.94103,68351
3.94365,53582
3.94625,40117
3.94887,33220
3.95147,26699
3.95407,24320
3.95668,22150
3.95928,19291
3.96190,19108
3.96450,17401
3.96710,16380
3.96972,17444
3.97232,15961
3.97493,15993
3.97753,13034
3.98013,13441
3.98275,14406
3.98535,13479
3.98797,14038
3.99057,13661
3.99317,14024
3.99578,15070
3.99838,12784
4.00100,12781
4.00360,13253
4.00622,13182
4.00882,13190
4.01142,10358
4.01403,13032
4.01663,12012
4.01925,13168
4.02185,12967
4.02445,12353
4.02707,13046
4.02967,12483
4.03228,11706
4.03488,11801
4.03748,12414
4.04010,10807
4.04270,12799
4.04532,11242
4.04792,13772
4.05052,14370
4.05313,12763
4.05573,11981
4.05835,12549
4.06095,13170
4.06355,13680
4.06617,12352
4.06877,13303
4.07138,10189
4.07398,10378
4.07658,12234
4.07920,13593
4.08180,12568
4.08442,11848
4.08702,10608
4.08963,13188
4.09223,11464
4.09483,11859
4.09745,13275
4.10005,11777
4.10267,11458
4.10527,11481
4.10787,11720
4.11048,10824
4.11308,11816
4.11570,11278
4.11830,11665
4.12090,10547
4.12352,11987
4.12612,10038
4.12873,12086
4.13133,11392
4.13393,10826
4.13655,10791
4.13915,13256
4.14177,11757
4.14437,12225
4.14697,9644
4.14958,11372
4.15218,11264
4.15480,11614
4.15740,11991
4.16000,10898
4.16262,12144
4.16522,10229
4.16783,11266
4.17043,10566
4.17305,11480
4.17565,9955
4.17825,11947
4.18087,11579
4.18347,9810
4.18608,12166
4.18868,10547
4.19128,10632
4.19390,10769
4.19650,10044
4.19912,11212
4.20172,10742
4.20432,10979
4.20693,11520
4.20953,12012
4.21215,9900
4.21475,11024
4.21735,12540
4.21997,10580
4.22257,11517
4.22518,10809
4.22778,9562
4.23038,11426
4.23300,10548
4.23560,11366
4.23822,11306
4.24082,8863
4.24342,10805
4.24603,11572
4.24863,11537
4.25125,10129
4.25385,9328
4.25647,11485
4.25907,10068
4.26167,10362
4.26428,10572
4.26688,10674
4.26950,11367
4.27210,9658
4.27470,10003
4.27732,10302
4.27992,11005
4.28253,8924
4.28513,10401
4.28773,10019
4.29035,11059
4.29295,10455
4.29557,9365
4.29817,10739
4.30077,12089
4.30338,10942
4.30598,10591
4.30860,11184
4.31120,10073
4.31380,10819
4.31642,12022
4.31902,9512
4.32163,11423
4.32423,11497
4.32683,10511
4.32945,10018
4.33205,10307
4.33467,10492
4.33727,10095
4.33988,9098
4.34248,11178
4.34508,10719
4.34770,10161
4.35030,11139
4.35292,8993
4.35552,11618
4.35812,9782
4.36073,10402
4.36333,11244
4.36595,9851
4.36855,10399
4.37115,9235
4.37377,8848
4.37637,9019
4.37898,9074
4.38158,9865
4.38418,10189
4.38680,11115
4.38940,9092
4.39202,8964
4.39462,12109
4.39722,10748
4.39983,10908
4.40243,12001
4.40505,11099
4.40765,12494
4.41025,12804
4.41287,10906
4.41547,10667
4.41808,12006
4.42068,10262
4.42330,11315
4.42590,10283
4.42850,9157
4.43112,10664
4.43372,9714
4.43633,12038
4.43893,8784
4.44153,9367
4.44415,10559
4.44675,10236
4.44937,10037
4.45197,11191
4.45457,10185
4.45718,9829
4.45978,9960
4.46240,10839
4.46500,9503
4.46760,11405
4.47022,9119
4.47282,9416
4.47543,9309
4.47803,8516
4.48063,10326
4.48325,11132
4.48585,10384
4.48847,9565
4.49107,9381
4.49367,11029
4.49628,9803
4.49888,9662
4.50150,11186
4.50410,9034
4.50672,9663
4.50932,9021
4.51192,11031
4.51453,10775
4.51713,10516
4.51975,10165
4.52235,9917
4.52495,9381
4.52757,9943
4.53017,10198
4.53278,10234
4.53538,10777
4.53798,9708
4.54060,9630
4.54320,10843
4.54582,9184
4.54842,10203
4.55102,10593
4.55363,11723
4.55623,11082
4.55885,11382
4.56145,9504
4.56405,8833
4.56667,9571
4.56927,9192
4.57188,8369
4.57448,8557
4.57708,8723
4.57970,10488
4.58230,9558
4.58492,9353
4.58752,11378
4.59013,10033
4.59273,9298
4.59533,7643
4.59795,10932
4.60055,8297
4.60317,8931
4.60577,9449
4.60837,9624
4.61098,9640
4.61358,10653
4.61620,9235
4.61880,10097
4.62140,8415
4.62402,9828
4.62662,9166
4.62923,11033
4.63183,9028
4.63443,8812
4.63705,10102
4.63965,10561
4.64227,11181
4.64487,9861
4.64747,9452
4.65008,8847
4.65268,9482
4.65530,11249
4.65790,8750
4.66050,9403
4.66312,12943
4.66572,9647
4.66833,9395
4.67093,8146
4.67355,9300
4.67615,9973
4.67875,10210
4.68137,8558
4.68397,10150
4.68658,9903
4.68918,10022
4.69178,8332
4.69440,9416
4.69700,9889
4.69962,10123
4.70222,9211
4.70482,9605
4.70743,9983
4.71003,10148
4.71265,8235
4.71525,10981
4.71785,9937
4.72047,10172
4.72307,10291
4.72568,10283
4.72828,10226
4.73088,9953
4.73350,9193
4.73610,9221
4.73872,10027
4.74132,10831
4.74392,9594
4.74653,7802
4.74913,9039
4.75175,9515
4.75435,9903
4.75697,11250
4.75957,10089
4.76217,8265
4.76478,8464
4.76738,9909
4.77000,10407
4.77260,9886
4.77520,10318
4.77782,9191
4.78042,9975
4.78303,9385
4.78563,8541
4.78823,10192
4.79085,8113
4.79345,10605
4.79607,9653
4.79867,9411
4.80127,8914
4.80388,9915
4.80648,9943
4.80910,9906
4.81170,8659
4.81430,9014
4.81692,10462
4.81952,9479
4.82213,11116
4.82473,11217
4.82733,10052
4.82995,9061
4.83255,9976
4.83517,11389
4.83777,9195
4.84038,10018
4.84298,8917
4.84558,9171
4.84820,9938
4.85080,8269
4.85342,10359
4.85602,10135
4.85862,10196
4.86123,10119
4.86383,10452
4.86645,9614
4.86905,10189
4.87165,9608
4.87427,10269
4.87687,9894
4.87948,9717
4.88208,11135
4.88468,10026
4.88730,8806
4.88990,10150
4.89252,8160
4.89512,8230
4.89772,10696
4.90033,8837
4.90293,11113
4.90555,8850
4.90815,9565
4.91075,10656
4.91337,9358
4.91597,11309
4.91858,8963
4.92118,10360
4.92380,7686
4.92640,8560
4.92900,9306
4.93162,9758
4.93422,9067
4.93683,8619
4.93943,9076
4.94203,10872
4.94465,10093
4.94725,9582
4.94987,8905
4.95247,9146
4.95507,10190
4.95768,8748
4.96028,11062
4.96290,11419
4.96550,9651
4.96810,8953
4.97072,8728
4.97332,9368
4.97593,10236
4.97853,7987
4.98113,8547
4.98375,10070
4.98635,8083
4.98897,8889
4.99157,8440
4.99417,9614
4.99678,10849
4.99938,10070
5.00200,10800
5.00460,9683
5.00722,9888
5.00982,10575
5.01242,9595
5.01503,10178
5.01763,9937
5.02025,9951
5.02285,7668
5.02545,9563
5.02807,11841
5.03067,9479
5.03328,8762
5.03588,11641
5.03848,10553
5.04110,11060
5.04370,11275
5.04632,8828
5.04892,8859
5.05152,10330
5.05413,8321
5.05673,9126
5.05935,9744
5.06195,10251
5.06455,8490
5.06717,12220
5.06977,11183
5.07238,9666
5.07498,11690
5.07758,10563
5.08020,10250
5.08280,10916
5.08542,10497
5.08802,10417
5.09063,8312
5.09323,10733
5.09583,10509
5.09845,11524
5.10105,10810
5.10367,12515
5.10627,12096
5.10887,11835
5.11148,9027
5.11408,11287
5.11670,9475
5.11930,11302
5.12190,10683
5.12452,9466
5.12712,10015
5.12973,9719
5.13233,9390
5.13493,9811
5.13755,10088
5.14015,8734
5.14277,8124
5.14537,8878
5.14797,8669
5.15058,9294
5.15318,9406
5.15580,11335
5.15840,10129
5.16100,12745
5.16362,15875
5.16622,12105
5.16883,12164
5.17143,10875
5.17405,8350
5.17665,10370
5.17925,9169
5.18187,10258
5.18447,10078
5.18708,9210
5.18968,10169
5.19228,8700
5.19490,10280
5.19750,10211
5.20012,9954
5.20272,10377
5.20532,8785
5.20793,9877
5.21053,9560
5.21315,9899
5.21575,9217
5.21835,10062
5.22097,9665
5.22357,9208
5.22618,10098
5.22878,10744
5.23138,11213
5.23400,10333
5.23660,8983
5.23922,9155
5.24182,9237
5.24442,10024
5.24703,10834
5.24963,10756
5.25225,9447
5.25485,9117
5.25747,9512
5.26007,8388
5.26267,9326
5.26528,9215
5.26788,9831
5.27050,10286
5.27310,9122
5.27570,9332
5.27832,9103
5.28092,9243
5.28353,9590
5.28613,9939
5.28873,8733
5.29135,11183
5.29395,10147
5.29657,10210
5.29917,10170
5.30177,10381
5.30438,10822
5.30698,10056
5.30960,11296
5.31220,9930
5.31480,8317
5.31742,9413
5.32002,10654
5.32263,10218
5.32523,11054
5.32783,9524
5.33045,11993
5.33305,10280
5.33567,9279
5.33827,9569
5.34088,9615
5.34348,11174
5.34608,10359
5.34870,9961
5.35130,9970
5.35392,9244
5.35652,10092
5.35912,10647
5.36173,9513
5.36433,11747
5.36695,11183
5.36955,11782
5.37215,10826
5.37477,9966
5.37737,9566
5.37998,10334
5.38258,10379
5.38518,10740
5.38780,10906
5.39040,10293
5.39302,9821
5.39562,9947
5.39822,9304
5.40083,10593
5.40343,9572
5.40605,9727
5.40865,9143
5.41125,10654
5.41387,9428
5.41647,9739
5.41908,10289
5.42168,10495
5.42430,8976
5.42690,8959
5.42950,9043
5.43212,10766
5.43472,9461
5.43733,10488
5.43993,9520
5.44253,9648
5.44515,8581
5.44775,12036
5.45037,11652
5.45297,12170
5.45557,13798
5.45818,13236
5.46078,14988
5.46340,13484
5.46600,14034
5.46860,12559
5.47122,11205
5.47382,10206
5.47643,11660
5.47903,11123
5.48163,11278
5.48425,10159
5.48685,10491
5.48947,10581
5.49207,11722
5.49467,10748
5.49728,10633
5.49988,12255
5.50250,10604
5.50510,10696
5.50772,10962
5.51032,12972
5.51292,10760
5.51553,10642
5.51813,12196
5.52075,10117
5.52335,11852
5.52595,10556
5.52857,11317
5.53117,11060
5.53378,11505
5.53638,10837
5.53898,11090
5.54160,10618
5.54420,11528
5.54682,10551
5.54942,11510
5.55202,10110
5.55463,11395
5.55723,9634
5.55985,10688
5.56245,10019
5.56505,11040
5.56767,10943
5.57027,12561
5.57288,12892
5.57548,9817
5.57808,9474
5.58070,9769
5.58330,10371
5.58592,10849
5.58852,10512
5.59113,10528
5.59373,10518
5.59633,11906
5.59895,9571
5.60155,10606
5.60417,10098
5.60677,10526
5.60937,10582
5.61198,10413
5.61458,10568
5.61720,9417
5.61980,9456
5.62240,10364
5.62502,9818
5.62762,9966
5.63023,10225
5.63283,9814
5.63543,9479
5.63805,10160
5.64065,9581
5.64327,10029
5.64587,10434
5.64847,11067
5.65108,9952
5.65368,10043
5.65630,9490
5.65890,9763
5.66150,11811
5.66412,9191
5.66672,10960
5.66933,11697
5.67193,10307
5.67455,9383
5.67715,10512
5.67975,11025
5.68237,10365
5.68497,11060
5.68758,10171
5.69018,10573
5.69278,10159
5.69540,11057
5.69800,12684
5.70062,11939
5.70322,13127
5.70582,16340
5.70843,13879
5.71103,12736
5.71365,13152
5.71625,11025
5.71885,10874
5.72147,12096
5.72407,9748
5.72668,11440
5.72928,11371
5.73188,11128
5.73450,9707
5.73710,11144
5.73972,9651
5.74232,10409
5.74492,10986
5.74753,10902
5.75013,10046
5.75275,10309
5.75535,11934
5.75797,10980
5.76057,10287
5.76317,12579
5.76578,10138
5.76838,10164
5.77100,11673
5.77360,11719
5.77620,12016
5.77882,12434
5.78142,9318
5.78403,10544
5.78663,10379
5.78923,10974
5.79185,11064
5.79445,10437
5.79707,11904
5.79967,10785
5.80227,10286
5.80488,12539
5.80748,13090
5.81010,12380
5.81270,16945
5.81530,27743
5.81792,41899
5.82052,63965
5.82313,72559
5.82573,71258
5.82833,54594
5.83095,38739
5.83355,27481
5.83617,22087
5.83877,24857
5.84138,34942
5.84398,40700
5.84658,40361
5.84920,31241
5.85180,21775
5.85442,19310
5.85702,15265
5.85962,13468
5.86223,12148
5.86483,14306
5.86745,12283
5.87005,13514
5.87265,12137
5.87527,13359
5.87787,12066
5.88048,11328
5.88308,12373
5.88568,11481
5.88830,12439
5.89090,13700
5.89352,13681
5.89612,13837
5.89872,12632
5.90133,12372
5.90393,12547
5.90655,12672
5.90915,11471
5.91175,11435
5.91437,11731
5.91697,10922
5.91958,12541
5.92218,12322
5.92480,12115
5.92740,13410
5.93000,15797
5.93262,13853
5.93522,15394
5.93783,16324
5.94043,16859
5.94303,14734
5.94565,14397
5.94825,13384
5.95087,15716
5.95347,13471
5.95607,13848
5.95868,13593
5.96128,13578
5.96390,13550
5.96650,12201
5.96910,12532
5.97172,12658
5.97432,15558
5.97693,15111
5.97953,14020
5.98213,13628
5.98475,12002
5.98735,13565
5.98997,12720
5.99257,14592
5.99517,11362
5.99778,14210
6.00038,14576
6.00300,14648
6.00560,12198
6.00822,13267
6.01082,12446
6.01342,14485
6.01603,11341
6.01863,12292
6.02125,12294
6.02385,14643
6.02645,10699
6.02907,13098
6.03167,12118
6.03428,12771
6.03688,14960
6.03948,14634
6.04210,15057
6.04470,16838
6.04732,17078
6.04992,21820
6.05252,25159
6.05513,23035
6.05773,24225
6.06035,23202
6.06295,20331
6.06555,18968
6.06817,18752
6.07077,18684
6.07338,16968
6.07598,15562
6.07858,15333
6.08120,16447
6.08380,14870
6.08642,14470
6.08902,14949
6.09163,14090
6.09423,14728
6.09683,13577
6.09945,15005
6.10205,15124
6.10467,12883
6.10727,14921
6.10987,13992
6.11248,13973
6.11508,15274
6.11770,14812
6.12030,14747
6.12290,13970
6.12552,16037
6.12812,14091
6.13073,15339
6.13333,14995
6.13593,17166
6.13855,15840
6.14115,15490
6.14377,14770
6.14637,14169
6.14897,14565
6.15158,12623
6.15418,12557
6.15680,12946
6.15940,14016
6.16200,13282
6.16462,14595
6.16722,12603
6.16983,13397
6.17243,14798
6.17505,14742
6.17765,17248
6.18025,16278
6.18287,14251
6.18547,13529
6.18808,12656
6.19068,13190
6.19328,12324
6.19590,12784
6.19850,14717
6.20112,13758
6.20372,11883
6.20632,12402
6.20893,12720
6.21153,12640
6.21415,12193
6.21675,12699
6.21935,13357
6.22197,10598
6.22457,12483
6.22718,13941
6.22978,12414
6.23238,13127
6.23500,13158
6.23760,13067
6.24022,11294
6.24282,12863
6.24542,12711
6.24803,11658
6.25063,12375
6.25325,12664
6.25585,11970
6.25847,12694
6.26107,11510
6.26367,11554
6.26628,11764
6.26888,12424
6.27150,13978
6.27410,11790
6.27670,13208
6.27932,12833
6.28192,12195
6.28453,13053
6.28713,13406
6.28973,11194
6.29235,10793
6.29495,13194
6.29757,11680
6.30017,12924
6.30277,13137
6.30538,12513
6.30798,12430
6.31060,11668
6.31320,11085
6.31580,11385
6.31842,11724
6.32102,12109
6.32363,11276
6.32623,13154
6.32883,12196
6.33145,13423
6.33405,11717
6.33667,12309
6.33927,12438
6.34188,12067
6.34448,11077
6.34708,12027
6.34970,14102
6.35230,13593
6.35492,12641
6.35752,13538
6.36012,11714
6.36273,12559
6.36533,13594
6.36795,11979
6.37055,12618
6.37315,12928
6.37577,11697
6.37837,11571
6.38098,12274
6.38358,12051
6.38618,12374
6.38880,12870
6.39140,11812
6.39402,11314
6.39662,10849
6.39922,12807
6.40183,12653
6.40443,13692
6.40705,14926
6.40965,13177
6.41225,14183
6.41487,13311
6.41747,11836
6.42008,13351
6.42268,12682
6.42530,12313
6.42790,12105
6.43050,11853
6.43312,11687
6.43572,13212
6.43833,12577
6.44093,12485
6.44353,13828
6.44615,14034
6.44875,11315
6.45137,12700
6.45397,13534
6.45657,11360
6.45918,12370
6.46178,11892
6.46440,13417
6.46700,13334
6.46960,14089
6.47222,12216
6.47482,14850
6.47743,11886
6.48003,14086
6.48263,11525
6.48525,11748
6.48785,14643
6.49047,13912
6.49307,12991
6.49567,13404
6.49828,15001
6.50088,15058
6.50350,19356
6.50610,18286
6.50872,20437
6.51132,20803
6.51392,17402
6.51653,18050
6.51913,16778
6.52175,15223
6.52435,17598
6.52695,16344
6.52957,15474
6.53217,15304
6.53478,15820
6.53738,15663
6.53998,15530
6.54260,15259
6.54520,14993
6.54782,14414
6.55042,15948
6.55302,15833
6.55563,14410
6.55823,13663
6.56085,13591
6.56345,15750
6.56605,16289
6.56867,15429
6.57127,15753
6.57388,13931
6.57648,13806
6.57908,15186
6.58170,16070
6.58430,13652
6.58692,20540
6.58952,40301
6.59213,141938
6.59473,562777
6.59733,1952147
6.59995,5218602
6.60255,1.011322E+07
6.60517,1.528553E+07
6.60777,2.068901E+07
6.61037,2.641468E+07
6.61298,3.067452E+07
6.61558,3.437096E+07
6.61820,3.309133E+07
6.62080,2.130775E+07
6.62340,6967019
6.62602,1620265
6.62862,519693
6.63123,272789
6.63383,190304
6.63643,152740
6.63905,127995
6.64165,111642
6.64427,97897
6.64687,84289
6.64947,79931
6.65208,73203
6.65468,70744
6.65730,62863
6.65990,59896
6.66250,58034
6.66512,49417
6.66772,49072
6.67033,45885
6.67293,45482
6.67555,42404
6.67815,39846
6.68075,43235
6.68337,40282
6.68597,36201
6.68858,38283
6.69118,35400
6.69378,33934
6.69640,34323
6.69900,31041
6.70162,32736
6.70422,32339
6.70682,30001
6.70943,31705
6.71203,29137
6.71465,31580
6.71725,28272
6.71985,28503
6.72247,27561
6.72507,27635
6.72768,28654
6.73028,24281
6.73288,26139
6.73550,27000
6.73810,27892
6.74072,26896
6.74332,27719
6.74592,26091
6.74853,27879
6.75113,25562
6.75375,23462
6.75635,24211
6.75897,25012
6.76157,23312
6.76417,23439
6.76678,27288
6.76938,25736
6.77200,26026
6.77460,26248
6.77720,24244
6.77982,20855
6.78242,20333
6.78503,20832
6.78763,21749
6.79023,22361
6.79285,19895
6.79545,20451
6.79807,21978
6.80067,20942
6.80327,20898
6.80588,20748
6.80848,20845
6.81110,19350
6.81370,20933
6.81630,21220
6.81892,20397
6.82152,20297
6.82413,19308
6.82673,19257
6.82933,18372
6.83195,18822
6.83455,19980
6.83717,20630
6.83977,18062
6.84238,19048
6.84498,20604
6.84758,19015
6.85020,20444
6.85280,20229
6.85542,23842
6.85802,35321
6.86062,53044
6.86323,76571
6.86583,101708
6.86845,110765
6.87105,95097
6.87365,75158
6.87627,61546
6.87887,48500
6.88148,42563
6.88408,40474
6.88668,37147
6.88930,33740
6.89190,31124
6.89452,34077
6.89712,29697
6.89972,30997
6.90233,28462
6.90493,29702
6.90755,26431
6.91015,27367
6.91275,27345
6.91537,26335
6.91797,25003
6.92058,25653
6.92318,25460
6.92580,22782
6.92840,25720
6.93100,28780
6.93362,29520
6.93622,32142
6.93883,36422
6.94143,32670
6.94403,28856
6.94665,26030
6.94925,23083
6.95187,24270
6.95447,27568
6.95707,25306
6.95968,26159
6.96228,25549
6.96490,25737
6.96750,21283
6.97010,21437
6.97272,23050
6.97532,23496
6.97793,21067
6.98053,19870
6.98313,19913
6.98575,22620
6.98835,19871
6.99097,21166
6.99357,19238
6.99617,19280
6.99878,22674
7.00138,21599
7.00400,18807
7.00660,20829
7.00922,21040
7.01182,22075
7.01442,19592
7.01703,19357
7.01963,18355
7.02225,19055
7.02485,18595
7.02745,18381
7.03007,20083
7.03267,19976
7.03528,23357
7.03788,18548
7.04048,21554
7.04310,21350
7.04570,25794
7.04832,25713
7.05092,27865
7.05352,31724
7.05613,30932
7.05873,27130
7.06135,24295
7.06395,22412
7.06655,22112
7.06917,22583
7.07177,21448
7.07438,21188
7.07698,19997
7.07958,20237
7.08220,19824
7.08480,20625
7.08742,18414
7.09002,21049
7.09263,19383
7.09523,18343
7.09783,18663
7.10045,21553
7.10305,19470
7.10567,19904
7.10827,19514
7.11087,18280
7.11348,20167
7.11608,18664
7.11870,19678
7.12130,20246
7.12390,19881
7.12652,18859
7.12912,18853
7.13173,17511
7.13433,18765
7.13693,19809
7.13955,19765
7.14215,20054
7.14477,19469
7.14737,19709
7.14997,19338
7.15258,19327
7.15518,18837
7.15780,18316
7.16040,21755
7.16300,20151
7.16562,17979
7.16822,17433
7.17083,18127
7.17343,18115
7.17605,15734
7.17865,20097
7.18125,19546
7.18387,17275
7.18647,19357
7.18908,16993
7.19168,18744
7.19428,19584
7.19690,21497
7.19950,18886
7.20212,19092
7.20472,21530
7.20732,23531
7.20993,27307
7.21253,30569
7.21515,33940
7.21775,30742
7.22035,29246
7.22297,24796
7.22557,24737
7.22818,21315
7.23078,21563
7.23338,21594
7.23600,19880
7.23860,22833
7.24122,23205
7.24382,21117
7.24642,21076
7.24903,19431
7.25163,21659
7.25425,20805
7.25685,19376
7.25947,19902
7.26207,18728
7.26467,20869
7.26728,21687
7.26988,19011
7.27250,19194
7.27510,22327
7.27770,19031
7.28032,18850
7.28292,18531
7.28553,19963
7.28813,18873
7.29073,20969
7.29335,19867
7.29595,18870
7.29857,20325
7.30117,19825
7.30377,19130
7.30638,19584
7.30898,20468
7.31160,20201
7.31420,18660
7.31680,18121
7.31942,19667
7.32202,21829
7.32463,18565
7.32723,19548
7.32983,19569
7.33245,21809
7.33505,18695
7.33767,21035
7.34027,20022
7.34288,18674
7.34548,18575
7.34808,17717
7.35070,17198
7.35330,20176
7.35592,19496
7.35852,19680
7.36112,18660
7.36373,20778
7.36633,21462
7.36895,19971
7.37155,18233
7.37415,20549
7.37677,17991
7.37937,18692
7.38198,17914
7.38458,20295
7.38718,17759
7.38980,20184
7.39240,20203
7.39502,18740
7.39762,19433
7.40022,19266
7.40283,20472
7.40543,22634
7.40805,21561
7.41065,18500
7.41325,17912
7.41587,21327
7.41847,18696
7.42108,19313
7.42368,21232
7.42630,19800
7.42890,19494
7.43150,19345
7.43412,19333
7.43672,19277
7.43933,19577
7.44193,19096
7.44453,18248
7.44715,19192
7.44975,20038
7.45237,19965
7.45497,19565
7.45757,18619
7.46018,20538
7.46278,17755
7.46540,18675
7.46800,21510
7.47060,22369
7.47322,21125
7.47582,20423
7.47843,20705
7.48103,21671
7.48363,21602
7.48625,21876
7.48885,21534
7.49147,20288
7.49407,20888
7.49667,23340
7.49928,22487
7.50188,23296
7.50450,21448
7.50710,21228
7.50972,19696
7.51232,20260
7.51492,21211
7.51753,20847
7.52013,22206
7.52275,23440
7.52535,24150
7.52795,25733
7.53057,21479
7.53317,23889
7.53578,22840
7.53838,21767
7.54098,20772
7.54360,22540
7.54620,21875
7.54882,21859
7.55142,20944
7.55402,20477
7.55663,20557
7.55923,20849
7.56185,22163
7.56445,19767
7.56705,21312
7.56967,20541
7.57227,21521
7.57488,24496
7.57748,23498
7.58008,24827
7.58270,27900
7.58530,27100
7.58792,23368
7.59052,23768
7.59313,24773
7.59573,22077
7.59833,21039
7.60095,21581
7.60355,22492
7.60617,20684
7.60877,21442
7.61137,21057
7.61398,21106
7.61658,23368
7.61920,23033
7.62180,21668
7.62440,21976
7.62702,24409
7.62962,21634
7.63223,21078
7.63483,21088
7.63743,22728
7.64005,20963
7.64265,23152
7.64527,23885
7.64787,21141
7.65047,22197
7.65308,22210
7.65568,24076
7.65830,21919
7.66090,24178
7.66350,23562
7.66612,27659
7.66872,35517
7.67133,48410
7.67393,66535
7.67655,89660
7.67915,104718
7.68175,96438
7.68437,74285
7.68697,59343
7.68958,42653
7.69218,38916
7.69478,32037
7.69740,30477
7.70000,31511
7.70262,31330
7.70522,26646
7.70782,28825
7.71043,26859
7.71303,27449
7.71565,27405
7.71825,27914
7.72085,29014
7.72347,27587
7.72607,29026
7.72868,26057
7.73128,26330
7.73388,28066
7.73650,27456
7.73910,26403
7.74172,24641
7.74432,27623
7.74692,27687
7.74953,26228
7.75213,25738
7.75475,27991
7.75735,25928
7.75997,24627
7.76257,24385
7.76517,25797
7.76778,28075
7.77038,27184
7.77300,26609
7.77560,25764
7.77820,25039
7.78082,26156
7.78342,26613
7.78603,24795
7.78863,27142
7.79123,24573
7.79385,25604
7.79645,27606
7.79907,26460
7.80167,25966
7.80427,25186
7.80688,25238
7.80948,28826
7.81210,27542
7.81470,25331
7.81730,28898
7.81992,27878
7.82252,28553
7.82513,30825
7.82773,31717
7.83033,33860
7.83295,31389
7.83555,29729
7.83817,30114
7.84077,26013
7.84338,29759
7.84598,26830
7.84858,26674
7.85120,29524
7.85380,25827
7.85642,27007
7.85902,26875
7.86162,27016
7.86423,28417
7.86683,25073
7.86945,24996
7.87205,26472
7.87465,29397
7.87727,27397
7.87987,28171
7.88248,27076
7.88508,27816
7.88768,28585
7.89030,28161
7.89290,30869
7.89552,27917
7.89812,28432
7.90072,29598
7.90333,27863
7.90593,30514
7.90855,30381
7.91115,32476
7.91375,30075
7.91637,29618
7.91897,29788
7.92158,29778
7.92418,29721
7.92680,27945
7.92940,29457
7.93200,28523
7.93462,27116
7.93722,28814
7.93983,27441
7.94243,27666
7.94503,28009
7.94765,28570
7.95025,29111
7.95287,25924
7.95547,29639
7.95807,28741
7.96068,28559
7.96328,31577
7.96590,30546
7.96850,31237
7.97110,27716
7.97372,29083
7.97632,28884
7.97893,27530
7.98153,29974
7.98413,28635
7.98675,29827
7.98935,30486
7.99197,28511
7.99457,29941
7.99717,27380
7.99978,28255
8.00238,26300
8.00500,26187
8.00760,30081
8.01022,30600
8.01282,28868
8.01542,30476
8.01803,28588
8.02063,28622
8.02325,29908
8.02585,27538
8.02845,30566
8.03107,29129
8.03367,29484
8.03628,29906
8.03888,30699
8.04148,28637
8.04410,31148
8.04670,31793
8.04932,29934
8.05192,35711
8.05452,34418
8.05713,53123
8.05973,123717
8.06235,412002
8.06495,1335174
8.06755,3742136
8.07017,7627178
8.07277,1.206503E+07
8.07538,1.620509E+07
8.07798,1.838083E+07
8.08058,1.665854E+07
8.08320,1.107478E+07
8.08580,5651913
8.08842,2754779
8.09102,1597008
8.09363,1079266
8.09623,792031
8.09883,623456
8.10145,516637
8.10405,437508
8.10667,357625
8.10927,320526
8.11187,287742
8.11448,259234
8.11708,224464
8.11970,199760
8.12230,191616
8.12490,172851
8.12752,166854
8.13012,142951
8.13273,142412
8.13533,129927
8.13793,120206
8.14055,113299
8.14315,108121
8.14577,106367
8.14837,99765
8.15097,96633
8.15358,90491
8.15618,83528
8.15880,83893
8.16140,81314
8.16400,76606
8.16662,75424
8.16922,75528
8.17183,70333
8.17443,80855
8.17705,81997
8.17965,96995
8.18225,95661
8.18487,90284
8.18747,82154
8.19008,73072
8.19268,69305
8.19528,66871
8.19790,60050
8.20050,58469
8.20312,59325
8.20572,61943
8.20832,60114
8.21093,60033
8.21353,57044
8.21615,56928
8.21875,56885
8.22135,55717
8.22397,53321
8.22657,51801
8.22918,53527
8.23178,49805
8.23438,47361
8.23700,51899
8.23960,46105
8.24222,45430
8.24482,48761
8.24742,48179
8.25003,46255
8.25263,45511
8.25525,46298
8.25785,43863
8.26047,46666
8.26307,46254
8.26567,48618
8.26828,46902
8.27088,46527
8.27350,45741
8.27610,44474
8.27870,46844
8.28132,46177
8.28392,46438
8.28653,43296
8.28913,48040
8.29173,48713
8.29435,45379
8.29695,46104
8.29957,46514
8.30217,46712
8.30477,45475
8.30738,48112
8.30998,42114
8.31260,45094
8.31520,46569
8.31780,45368
8.32042,44450
8.32302,44789
8.32563,45215
8.32823,44302
8.33083,41973
8.33345,46736
8.33605,44762
8.33867,44800
8.34127,45380
8.34388,46313
8.34648,44818
8.34908,46218
8.35170,44745
8.35430,44342
8.35692,43611
8.35952,44098
8.36212,44877
8.36473,44299
8.36733,45529
8.36995,45110
8.37255,45415
8.37515,45985
8.37777,46900
8.38037,45845
8.38298,42488
8.38558,46642
8.38818,47076
8.39080,48728
8.39340,46157
8.39602,45038
8.39862,47598
8.40122,46160
8.40383,46183
8.40643,44787
8.40905,47748
8.41165,47690
8.41425,47721
8.41687,47700
8.41947,44147
8.42208,47501
8.42468,49443
8.42730,46100
8.42990,47278
8.43250,48712
8.43512,47561
8.43772,47440
8.44033,50390
8.44293,50631
8.44553,51699
8.44815,48051
8.45075,48422
8.45337,48607
8.45597,49379
8.45857,50130
8.46118,50631
8.46378,51923
8.46640,52181
8.46900,52305
8.47160,52020
8.47422,55443
8.47682,56533
8.47943,59055
8.48203,59957
8.48463,58205
8.48725,55542
8.48985,53141
8.49247,53025
8.49507,55138
8.49767,53724
8.50028,57377
8.50288,55422
8.50550,61530
8.50810,65174
8.51072,66444
8.51332,68770
8.51592,66723
8.51853,64281
8.52113,58335
8.52375,59226
8.52635,57856
8.52895,54959
8.53157,54773
8.53417,57154
8.53678,54613
8.53938,54556
8.54198,55421
8.54460,55281
8.54720,58473
8.54982,57736
8.55242,58515
8.55502,61916
8.55763,60354
8.56023,55114
8.56285,59808
8.56545,61054
8.56805,58697
8.57067,63822
8.57327,61059
8.57588,59665
8.57848,61775
8.58108,60522
8.58370,59308
8.58630,63021
8.58892,61441
8.59152,62308
8.59413,65089
8.59673,62740
8.59933,62952
8.60195,62168
8.60455,61564
8.60717,66144
8.60977,65568
8.61237,65233
8.61498,63276
8.61758,65060
8.62020,66645
8.62280,66314
8.62540,65737
8.62802,68650
8.63062,67883
8.63323,68245
8.63583,68499
8.63843,69850
8.64105,64460
8.64365,66222
8.64627,72420
8.64887,70018
8.65147,68489
8.65408,69606
8.65668,70823
8.65930,68633
8.66190,68784
8.66450,70014
8.66712,70747
8.66972,71094
8.67233,70872
8.67493,71828
8.67755,71027
8.68015,77109
8.68275,74055
8.68537,79134
8.68797,79236
8.69058,78634
8.69318,83654
8.69578,80550
8.69840,81875
8.70100,81332
8.70362,78762
8.70622,83208
8.70882,84458
8.71143,81139
8.71403,87393
8.71665,85812
8.71925,91768
8.72185,86153
8.72447,86747
8.72707,90153
8.72968,91380
8.73228,86802
8.73488,92117
8.73750,88983
8.74010,88814
8.74272,87137
8.74532,86542
8.74792,85252
8.75053,85727
8.75313,88129
8.75575,84757
8.75835,89241
8.76097,82483
8.76357,82677
8.76617,88125
8.76878,85949
8.77138,85312
8.77400,86990
8.77660,93685
8.77920,83586
8.78182,86540
8.78442,84869
8.78703,88132
8.78963,88901
8.79223,86435
8.79485,87194
8.79745,92044
8.80007,91394
8.80267,91114
8.80527,84702
8.80788,88912
8.81048,85016
8.81310,90507
8.81570,89358
8.81830,92191
8.82092,92643
8.82352,94432
8.82613,93600
8.82873,86581
8.83133,92888
8.83395,89908
8.83655,93660
8.83917,93504
8.84177,91933
8.84438,91771
8.84698,98207
8.84958,96386
8.85220,93927
8.85480,92378
8.85742,99424
8.86002,90938
8.86262,99250
8.86523,92178
8.86783,96751
8.87045,99829
8.87305,98465
8.87565,99683
8.87827,97237
8.88087,92065
8.88348,97451
8.88608,98856
8.88868,96279
8.89130,101239
8.89390,100118
8.89652,91938
8.89912,97303
8.90172,96613
8.90433,101573
8.90693,97870
8.90955,101313
8.91215,100692
8.91475,95391
8.91737,97952
8.91997,101801
8.92258,100772
8.92518,100766
8.92780,105360
8.93040,103394
8.93300,104213
8.93562,101824
8.93822,104700
8.94083,106321
8.94343,102022
8.94603,100720
8.94865,99909
8.95125,102689
8.95387,100817
8.95647,102565
8.95907,103819
8.96168,104433
8.96428,100124
8.96690,106624
8.96950,103558
8.97210,104159
8.97472,101195
8.97732,102867
8.97993,104003
8.98253,101437
8.98513,104057
8.98775,108058
8.99035,101900
8.99297,106479
8.99557,100363
8.99817,106620
9.00078,102620
9.00338,104022
9.00600,107293
9.00860,108764
9.01122,106786
9.01382,108771
9.01642,106470
9.01903,108183
9.02163,105493
9.02425,107875
9.02685,110801
9.02945,105939
9.03207,107277
9.03467,107321
9.03728,107560
9.03988,104361
9.04248,113952
9.04510,105361
9.04770,105501
9.05032,105855
9.05292,105031
9.05552,111215
9.05813,109507
9.06073,107338
9.06335,104244
9.06595,112530
9.06855,110693
9.07117,108298
9.07377,105797
9.07638,111623
9.07898,107959
9.08158,108729
9.08420,112024
9.08680,107106
9.08942,110290
9.09202,108162
9.09463,111935
9.09723,110991
9.09983,104882
9.10245,113892
9.10505,109986
9.10767,107811
9.11027,110626
9.11287,113613
9.11548,105833
9.11808,109941
9.12070,111326
9.12330,113422
9.12590,119072
9.12852,117025
9.13112,114107
9.13373,114669
9.13633,111070
9.13893,113925
9.14155,111085
9.14415,112782
9.14677,112422
9.14937,117623
9.15197,112999
9.15458,115833
9.15718,111179
9.15980,110929
9.16240,109914
9.16500,112292
9.16762,108225
9.17022,110426
9.17283,112761
9.17543,111319
9.17805,114558
9.18065,111425
9.18325,103985
9.18587,111006
9.18847,111359
9.19108,114281
9.19368,112390
9.19628,116977
9.19890,116662
9.20150,116130
9.20412,117971
9.20672,117609
9.20932,113790
9.21193,114808
9.21453,114283
9.21715,109553
9.21975,114208
9.22235,116487
9.22497,113149
9.22757,111343
9.23018,112609
9.23278,113210
9.23538,116255
9.23800,115618
9.24060,114132
9.24322,108951
9.24582,112569
9.24842,109743
9.25103,112773
9.25363,110922
9.25625,109403
9.25885,114871
9.26147,114402
9.26407,115855
9.26667,110949
9.26928,110844
9.27188,111245
9.27450,111657
9.27710,112844
9.27970,112162
9.28232,108937
9.28492,111190
9.28753,112383
9.29013,109023
9.29273,107820
9.29535,111931
9.29795,112804
9.30057,112121
9.30317,106559
9.30577,110307
9.30838,108737
9.31098,109601
9.31360,112662
9.31620,110607
9.31880,111518
9.32142,115240
9.32402,114950
9.32663,115125
9.32923,116814
9.33183,111951
9.33445,111843
9.33705,112915
9.33967,109118
9.34227,111127
9.34488,112017
9.34748,112574
9.35008,110925
9.35270,112405
9.35530,111639
9.35792,111948
9.36052,110795
9.36312,112837
9.36573,113919
9.36833,113638
9.37095,110960
9.37355,110584
9.37615,114080
9.37877,111721
9.38137,115504
9.38398,113120
9.38658,111752
9.38918,112018
9.39180,111935
9.39440,118240
9.39702,115402
9.39962,110239
9.40222,107594
9.40483,107287
9.40743,108343
9.41005,110730
9.41265,113719
9.41525,109998
9.41787,109993
9.42047,113910
9.42308,112914
9.42568,116074
9.42830,114470
9.43090,113880
9.43350,113809
9.43612,111374
9.43872,112866
9.44133,111963
9.44393,110044
9.44653,110066
9.44915,115086
9.45175,112618
9.45437,113065
9.45697,113196
9.45957,111678
9.46218,112481
9.46478,114056
9.46740,108702
9.47000,112398
9.47260,115455
9.47522,112488
9.47782,112366
9.48043,116919
9.48303,117015
9.48563,116108
9.48825,108535
9.49085,112698
9.49347,109623
9.49607,109221
9.49868,108771
9.50128,107338
9.50388,116893
9.50650,107096
9.50910,108163
9.51172,110035
9.51432,107780
9.51692,114211
9.51953,115466
9.52213,112104
9.52475,112956
9.52735,108622
9.52995,113102
9.53257,109428
9.53517,112271
9.53778,108309
9.54038,104388
9.54298,105578
9.54560,109789
9.54820,112656
9.55082,104104
9.55342,109219
9.55602,111743
9.55863,104086
9.56123,110515
9.56385,110636
9.56645,111130
9.56905,110533
9.57167,111021
9.57427,110976
9.57688,113748
9.57948,107460
9.58210,111450
9.58470,109631
9.58730,111893
9.58992,106783
9.59252,112195
9.59513,112879
9.59773,113887
9.60033,112626
9.60295,116287
9.60555,109937
9.60817,114904
9.61077,110452
9.61337,113358
9.61598,108737
9.61858,109887
9.62120,104736
9.62380,112077
9.62640,107724
9.62902,111017
9.63162,107580
9.63423,111234
9.63683,112548
9.63943,109855
9.64205,113720
9.64465,110076
9.64727,111875
9.64987,105519
9.65247,106812
9.65508,110828
9.65768,117713
9.66030,107728
9.66290,110190
9.66552,111029
9.66812,109220
9.67072,110011
9.67333,112713
9.67593,108422
9.67855,108829
9.68115,110600
9.68375,110540
9.68637,111274
9.68897,112332
9.69158,112456
9.69418,115374
9.69678,110867
9.69940,109853
9.70200,110253
9.70462,110171
9.70722,107567
9.70982,108186
9.71243,109216
9.71503,110063
9.71765,108350
9.72025,104914
9.72285,109604
9.72547,113861
9.72807,110184
9.73068,109960
9.73328,109539
9.73588,107342
9.73850,111291
9.74110,110830
9.74372,112152
9.74632,108825
9.74893,110602
9.75153,111004
9.75413,112353
9.75675,109843
9.75935,111738
9.76197,113693
9.76457,108956
9.76717,111227
9.76978,107659
9.77238,110577
9.77500,109928
9.77760,109080
9.78020,108166
9.78282,112690
9.78542,115269
9.78803,107340
9.79063,109813
9.79323,111263
9.79585,110014
9.79845,110243
9.80107,108318
9.80367,114262
9.80627,113183
9.80888,111966
9.81148,108739
9.81410,111337
9.81670,110773
9.81930,112791
9.82192,110960
9.82452,109408
9.82713,111490
9.82973,107928
9.83233,109522
9.83495,114576
9.83755,110937
9.84017,108513
9.84277,110029
9.84538,113610
9.84798,111156
9.85058,113357
9.85320,112321
9.85580,110116
9.85842,115283
9.86102,113944
9.86362,107777
9.86623,107052
9.86883,109185
9.87145,105548
9.87405,109979
9.87665,106881
9.87927,110659
9.88187,107870
9.88448,108501
9.88708,107572
9.88968,112587
9.89230,108075
9.89490,112328
9.89752,111152
9.90012,112243
9.90272,110241
9.90533,111786
9.90793,110502
9.91055,105876
9.91315,113784
9.91575,114032
9.91837,108085
9.92097,109706
9.92358,110302
9.92618,107218
9.92880,109167
9.93140,109312
9.93400,112593
9.93662,111969
9.93922,106814
9.94183,115643
9.94443,109069
9.94703,113417
9.94965,112582
9.95225,108785
9.95487,106766
9.95747,109159
9.96007,109677
9.96268,111179
9.96528,107893
9.96790,111995
9.97050,108344
9.97310,106319
9.97572,108344
9.97832,108530
9.98093,107650
9.98353,115074
9.98613,106226
9.98875,109565
9.99135,111801
9.99397,107536
9.99657,108655
9.99917,109108
10.00178,115495
10.00438,110115
10.00700,109373
10.00960,111174
10.01222,110433
10.01482,110126
10.01742,110245
10.02003,106366
10.02263,111085
10.02525,108681
10.02785,114265
10.03045,110593
10.03307,112935
10.03567,112312
10.03828,114663
10.04088,108189
10.04348,116217
10.04610,112365
10.04870,111383
10.05132,110747
10.05392,110191
10.05652,111765
10.05913,112391
10.06173,110892
10.06435,110523
10.06695,109979
10.06955,110921
10.07217,116725
10.07477,112194
10.07738,114536
10.07998,113909
10.08258,112649
10.08520,111506
10.08780,108684
10.09042,111101
10.09302,110944
10.09563,111701
10.09823,112986
10.10083,110801
10.10345,112283
10.10605,115277
10.10867,111077
10.11127,110063
10.11387,108116
10.11648,107601
10.11908,107721
10.12170,108805
10.12430,112434
10.12690,110225
10.12952,104527
10.13212,111916
10.13473,109767
10.13733,109884
10.13993,110652
10.14255,112637
10.14515,110124
10.14777,114227
10.15037,111327
10.15297,112614
10.15558,114100
10.15818,109758
10.16080,109472
10.16340,109557
10.16602,107153
10.16862,109935
10.17122,105968
10.17383,114038
10.17643,107588
10.17905,108255
10.18165,111111
10.18425,108182
10.18687,109248
10.18947,108680
10.19208,112117
10.19468,110033
10.19728,107926
10.19990,111185
10.20250,113609
10.20512,113501
10.20772,112711
10.21032,112598
10.21293,110754
10.21553,109358
10.21815,112641
10.22075,112084
10.22335,114115
10.22597,113370
10.22857,114380
10.23118,115393
10.23378,105382
10.23638,104815
10.23900,110361
10.24160,109674
10.24422,110347
10.24682,104995
10.24943,115338
10.25203,110104
10.25463,105838
10.25725,105151
10.25985,110405
10.26247,108545
10.26507,106960
10.26767,107498
10.27028,110846
10.27288,113464
10.27550,110312
10.27810,110729
10.28070,108593
10.28332,108033
10.28592,113127
10.28853,107906
10.29113,112560
10.29373,106421
10.29635,111936
10.29895,109584
10.30157,111519
10.30417,109191
10.30677,109047
10.30938,112995
10.31198,111932
10.31460,107411
10.31720,110777
10.31980,111961
10.32242,110173
10.32502,112055
10.32763,107999
10.33023,111793
10.33283,111097
10.33545,113321
10.33805,105319
10.34067,112947
10.34327,111648
10.34588,113013
10.34848,106550
10.35108,108945
10.35370,108796
10.35630,110025
10.35892,109228
10.36152,106315
10.36412,106157
10.36673,111096
10.36933,108335
10.37195,108417
10.37455,109798
10.37715,109091
10.37977,112260
10.38237,111471
10.38498,109607
10.38758,111250
10.39018,107384
10.39280,108958
10.39540,106157
10.39802,110917
10.40062,112438
10.40322,109109
10.40583,112618
10.40843,109477
10.41105,107567
10.41365,108209
10.41627,112232
10.41887,109747
10.42147,114316
10.42408,112582
10.42668,117101
10.42930,111730
10.43190,112743
10.43450,116491
10.43712,110232
10.43972,114888
10.44233,114898
10.44493,110771
10.44753,116695
10.45015,111634
10.45275,112965
10.45537,109418
10.45797,111240
10.46057,114277
10.46318,115690
10.46578,114561
10.46840,114011
10.47100,115762
10.47360,113233
10.47622,114271
10.47882,113055
10.48143,114687
10.48403,116602
10.48663,114485
10.48925,113683
10.49185,111380
10.49447,117341
10.49707,113838
10.49968,113055
10.50228,119432
10.50488,112959
10.50750,116636
10.51010,114387
10.51272,113550
10.51532,113118
10.51792,110311
10.52053,109651
10.52313,117253
10.52575,115992
10.52835,111380
10.53095,114864
10.53357,109106
10.53617,114464
10.53878,109304
10.54138,113836
10.54398,107893
10.54660,112163
10.54920,111922
10.55182,109933
10.55442,112001
10.55702,109623
10.55963,109309
10.56223,109645
10.56485,112027
10.56745,115124
10.57005,110537
10.57267,113898
10.57527,113259
10.57788,111943
10.58048,110310
10.58310,109996
10.58570,110424
10.58830,111137
10.59092,114365
10.59352,113234
10.59613,109111
10.59873,111699
10.60133,117321
10.60395,113234
10.60655,108495
10.60917,109816
10.61177,113847
10.61437,109877
10.61698,107058
10.61958,111691
10.62220,110477
10.62480,110860
10.62740,111664
10.63002,107600
10.63262,113251
10.63523,110271
10.63783,113615
10.64043,110690
10.64305,111341
10.64565,113485
10.64827,112997
10.65087,111379
10.65347,113739
10.65608,110842
10.65868,110536
10.66130,113750
10.66390,114200
