D:\data\overige2021\rk\20200201rk_cocacase28x\B039752.D Mon Feb 01 16:41:35 2021
Start of data points
1.58985,10970
1.59245,11597
1.59507,14268
1.59767,12177
1.60028,14140
1.60288,12285
1.60548,12324
1.60810,12497
1.61070,12177
1.61332,12109
1.61592,13075
1.61852,11938
1.62113,12728
1.62373,11802
1.62635,12182
1.62895,12879
1.63155,11477
1.63417,12478
1.63677,11572
1.63938,10103
1.64198,11245
1.64460,12152
1.64720,12117
1.64980,9590
1.65242,11926
1.65502,11904
1.65763,9798
1.66023,11757
1.66283,11267
1.66545,10637
1.66805,12360
1.67067,10711
1.67327,10440
1.67587,10942
1.67848,9134
1.68108,9703
1.68370,9609
1.68630,9216
1.68890,9026
1.69152,10245
1.69412,9259
1.69673,8992
1.69933,9663
1.70193,7698
1.70455,9516
1.70715,11159
1.70977,9850
1.71237,9628
1.71497,9615
1.71758,9060
1.72018,8713
1.72280,8502
1.72540,9062
1.72802,8674
1.73062,9218
1.73322,10144
1.73583,8579
1.73843,7198
1.74105,9045
1.74365,10009
1.74625,8120
1.74887,8922
1.75147,8455
1.75408,7441
1.75668,7281
1.75928,7605
1.76190,8545
1.76450,8737
1.76712,7886
1.76972,8130
1.77232,7929
1.77493,8415
1.77753,7971
1.78015,6270
1.78275,7389
1.78535,7518
1.78797,8592
1.79057,7646
1.79318,8795
1.79578,9284
1.79838,6452
1.80100,7574
1.80360,7730
1.80622,8120
1.80882,7317
1.81143,6683
1.81403,6226
1.81663,6634
1.81925,6557
1.82185,6999
1.82447,6737
1.82707,7725
1.82967,8258
1.83228,9078
1.83488,7000
1.83750,6831
1.84010,6781
1.84270,7311
1.84532,7954
1.84792,6844
1.85053,7575
1.85313,8377
1.85573,7519
1.85835,7635
1.86095,6080
1.86357,7048
1.86617,5488
1.86877,6066
1.87138,6705
1.87398,7444
1.87660,6492
1.87920,5776
1.88180,5939
1.88442,6418
1.88702,6594
1.88963,6068
1.89223,6416
1.89485,6261
1.89745,6323
1.90005,7553
1.90267,7006
1.90527,5850
1.90788,6130
1.91048,6375
1.91308,6857
1.91570,6208
1.91830,6585
1.92092,6219
1.92352,4755
1.92612,5222
1.92873,6350
1.93133,8021
1.93395,6519
1.93655,5008
1.93915,7228
1.94177,5501
1.94437,4812
1.94698,5846
1.94958,6285
1.95218,5784
1.95480,7279
1.95740,7296
1.96002,5549
1.96262,6920
1.96522,5656
1.96783,5464
1.97043,5516
1.97305,6070
1.97565,5689
1.97827,6897
1.98087,6775
1.98347,6151
1.98608,6091
1.98868,6048
1.99130,6010
1.99390,5965
1.99650,5217
1.99912,5572
2.00172,5384
2.00433,5994
2.00693,5957
2.00953,5726
2.01215,5591
2.01475,6543
2.01737,5332
2.01997,6318
2.02257,5664
2.02518,6338
2.02778,5687
2.03040,6100
2.03300,6615
2.03560,5291
2.03822,5999
2.04082,7147
2.04343,7573
2.04603,7430
2.04863,7374
2.05125,7267
2.05385,6623
2.05647,8599
2.05907,7909
2.06168,7860
2.06428,6214
2.06688,7646
2.06950,6226
2.07210,6143
2.07472,8163
2.07732,6253
2.07992,7427
2.08253,6766
2.08513,6626
2.08775,7399
2.09035,7298
2.09295,6997
2.09557,6422
2.09817,5785
2.10078,6571
2.10338,5734
2.10598,6556
2.10860,6418
2.11120,6152
2.11382,6099
2.11642,6053
2.11902,5659
2.12163,6884
2.12423,5316
2.12685,6103
2.12945,5704
2.13205,6382
2.13467,5850
2.13727,5140
2.13988,5316
2.14248,6076
2.14510,6127
2.14770,6792
2.15030,5650
2.15292,5393
2.15552,5927
2.15813,6620
2.16073,6375
2.16333,5425
2.16595,5843
2.16855,4959
2.17117,4337
2.17377,5634
2.17637,4831
2.17898,6212
2.18158,5320
2.18420,5890
2.18680,6165
2.18940,5972
2.19202,5646
2.19462,6070
2.19723,6929
2.19983,5314
2.20243,5112
2.20505,5998
2.20765,5522
2.21027,5252
2.21287,5474
2.21547,4347
2.21808,4917
2.22068,6404
2.22330,6310
2.22590,5658
2.22852,5151
2.23112,5462
2.23372,5409
2.23633,5301
2.23893,6383
2.24155,6187
2.24415,5977
2.24675,5207
2.24937,5531
2.25197,4977
2.25458,4840
2.25718,4923
2.25978,5605
2.26240,5401
2.26500,5232
2.26762,5020
2.27022,4894
2.27282,4481
2.27543,6971
2.27803,5614
2.28065,5152
2.28325,5998
2.28585,5381
2.28847,4478
2.29107,5657
2.29368,5479
2.29628,5231
2.29888,5215
2.30150,5641
2.30410,4969
2.30672,5264
2.30932,4570
2.31193,4163
2.31453,5386
2.31713,5889
2.31975,5017
2.32235,5130
2.32497,5704
2.32757,7063
2.33017,4918
2.33278,4874
2.33538,5230
2.33800,5318
2.34060,5779
2.34320,6416
2.34582,4664
2.34842,3998
2.35103,4647
2.35363,4052
2.35623,5278
2.35885,5903
2.36145,5650
2.36407,5964
2.36667,4846
2.36927,4373
2.37188,6193
2.37448,6344
2.37710,5170
2.37970,6676
2.38230,4520
2.38492,5866
2.38752,5209
2.39013,5586
2.39273,5276
2.39535,4476
2.39795,5041
2.40055,5269
2.40317,4718
2.40577,4111
2.40838,6316
2.41098,3849
2.41358,4391
2.41620,5430
2.41880,5164
2.42142,5811
2.42402,5836
2.42662,5355
2.42923,6373
2.43183,5525
2.43445,4283
2.43705,4967
2.43965,5977
2.44227,6094
2.44487,5550
2.44748,5351
2.45008,5850
2.45268,8068
2.45530,7436
2.45790,6907
2.46052,7045
2.46312,6541
2.46572,8057
2.46833,7626
2.47093,8188
2.47355,6545
2.47615,7377
2.47877,6608
2.48137,5774
2.48397,7492
2.48658,6642
2.48918,5229
2.49180,6661
2.49440,5209
2.49700,6600
2.49962,6265
2.50222,5341
2.50483,6145
2.50743,6471
2.51003,5960
2.51265,5535
2.51525,5457
2.51787,4677
2.52047,5664
2.52307,7934
2.52568,5289
2.52828,4518
2.53090,4386
2.53350,4660
2.53610,5620
2.53872,5467
2.54132,5088
2.54393,4159
2.54653,4652
2.54913,4635
2.55175,4798
2.55435,5770
2.55697,4777
2.55957,4637
2.56218,5214
2.56478,5559
2.56738,5188
2.57000,5305
2.57260,4117
2.57522,4658
2.57782,6043
2.58042,6146
2.58303,5672
2.58563,4525
2.58825,4739
2.59085,5657
2.59345,5480
2.59607,5509
2.59867,6060
2.60128,5277
2.60388,5001
2.60648,5289
2.60910,5133
2.61170,5125
2.61432,4467
2.61692,4457
2.61952,5297
2.62213,5233
2.62473,4678
2.62735,5061
2.62995,4565
2.63255,4784
2.63517,4402
2.63777,5188
2.64038,5089
2.64298,6300
2.64560,5514
2.64820,4002
2.65080,4871
2.65342,4715
2.65602,4941
2.65863,4422
2.66123,5519
2.66383,4758
2.66645,4274
2.66905,4823
2.67167,5596
2.67427,4435
2.67687,4659
2.67948,5718
2.68208,4282
2.68470,4614
2.68730,5016
2.68990,5703
2.69252,4907
2.69512,5097
2.69773,4509
2.70033,5216
2.70293,4516
2.70555,5141
2.70815,5782
2.71077,5842
2.71337,5754
2.71597,5038
2.71858,5121
2.72118,5338
2.72380,5702
2.72640,5101
2.72902,5664
2.73162,5424
2.73422,5508
2.73683,4803
2.73943,4198
2.74205,4594
2.74465,5643
2.74725,5848
2.74987,4840
2.75247,5038
2.75508,5429
2.75768,5719
2.76028,4819
2.76290,6392
2.76550,4622
2.76812,4010
2.77072,5192
2.77332,5980
2.77593,5246
2.77853,4761
2.78115,4748
2.78375,4520
2.78635,5262
2.78897,4380
2.79157,4886
2.79418,4256
2.79678,4588
2.79938,3709
2.80200,5028
2.80460,5220
2.80722,5044
2.80982,4964
2.81243,5478
2.81503,4912
2.81763,5347
2.82025,4456
2.82285,4555
2.82547,5695
2.82807,4995
2.83067,5083
2.83328,4568
2.83588,4217
2.83850,5226
2.84110,4608
2.84370,5464
2.84632,4602
2.84892,4103
2.85153,4172
2.85413,4792
2.85673,4712
2.85935,4763
2.86195,5460
2.86457,6073
2.86717,4619
2.86977,4936
2.87238,4077
2.87498,5982
2.87760,5235
2.88020,3944
2.88280,4508
2.88542,5054
2.88802,4178
2.89063,4172
2.89323,4320
2.89585,5047
2.89845,4389
2.90105,4334
2.90367,4488
2.90627,4694
2.90888,5273
2.91148,4740
2.91408,5309
2.91670,5161
2.91930,4551
2.92192,4579
2.92452,4657
2.92712,4966
2.92973,5252
2.93233,4616
2.93495,4499
2.93755,3500
2.94015,6493
2.94277,5393
2.94537,4756
2.94798,4955
2.95058,5266
2.95318,4512
2.95580,4971
2.95840,5300
2.96102,4593
2.96362,5641
2.96622,4643
2.96883,4357
2.97143,5332
2.97405,5469
2.97665,6386
2.97927,5320
2.98187,5063
2.98447,5179
2.98708,5160
2.98968,4545
2.99230,4568
2.99490,4975
2.99750,5099
3.00012,4349
3.00272,5341
3.00533,5917
3.00793,4046
3.01053,5834
3.01315,4553
3.01575,6135
3.01837,5273
3.02097,4697
3.02357,5153
3.02618,5603
3.02878,4463
3.03140,4978
3.03400,4168
3.03660,5105
3.03922,3758
3.04182,5316
3.04443,5388
3.04703,4667
3.04963,5014
3.05225,4843
3.05485,6234
3.05747,4463
3.06007,3838
3.06268,4873
3.06528,4109
3.06788,4896
3.07050,5943
3.07310,5956
3.07572,4866
3.07832,3727
3.08092,3864
3.08353,4859
3.08613,5599
3.08875,4783
3.09135,5096
3.09395,4938
3.09657,4130
3.09917,4034
3.10178,5035
3.10438,4961
3.10698,4505
3.10960,4769
3.11220,5231
3.11482,6173
3.11742,8228
3.12002,11241
3.12263,16422
3.12523,19231
3.12785,23464
3.13045,22218
3.13305,22167
3.13567,19988
3.13827,20897
3.14088,17839
3.14348,16248
3.14610,14280
3.14870,11582
3.15130,12818
3.15392,10876
3.15652,11313
3.15913,10106
3.16173,10928
3.16433,10118
3.16695,9737
3.16955,9970
3.17217,9092
3.17477,8345
3.17737,9041
3.17998,8959
3.18258,8192
3.18520,8023
3.18780,7587
3.19040,7823
3.19302,6563
3.19562,6625
3.19823,7210
3.20083,8745
3.20343,8217
3.20605,6544
3.20865,6165
3.21127,6892
3.21387,6991
3.21647,6519
3.21908,6318
3.22168,8080
3.22430,6691
3.22690,6285
3.22952,5585
3.23212,6335
3.23472,7219
3.23733,6267
3.23993,5270
3.24255,5888
3.24515,5355
3.24775,6794
3.25037,5596
3.25297,6600
3.25558,6695
3.25818,5105
3.26078,6040
3.26340,5167
3.26600,5337
3.26862,6249
3.27122,6363
3.27382,6083
3.27643,5187
3.27903,6682
3.28165,6178
3.28425,5940
3.28685,7829
3.28947,6377
3.29207,5470
3.29468,4843
3.29728,4826
3.29988,5578
3.30250,6508
3.30510,6161
3.30772,5590
3.31032,5925
3.31293,5483
3.31553,5302
3.31813,5880
3.32075,5388
3.32335,5082
3.32597,6507
3.32857,5771
3.33117,5942
3.33378,5740
3.33638,5557
3.33900,4806
3.34160,5949
3.34420,5411
3.34682,6142
3.34942,4819
3.35203,5189
3.35463,5667
3.35723,6466
3.35985,4993
3.36245,5532
3.36507,4448
3.36767,5605
3.37027,5545
3.37288,5848
3.37548,5761
3.37810,4831
3.38070,5095
3.38330,4400
3.38592,5052
3.38852,7367
3.39113,6818
3.39373,7626
3.39635,7568
3.39895,8805
3.40155,8687
3.40417,7363
3.40677,8867
3.40938,7646
3.41198,8072
3.41458,5827
3.41720,6684
3.41980,6794
3.42242,6159
3.42502,6491
3.42762,5432
3.43023,5664
3.43283,6820
3.43545,5999
3.43805,6473
3.44065,5718
3.44327,6421
3.44587,5873
3.44848,7102
3.45108,6152
3.45368,6497
3.45630,5991
3.45890,6651
3.46152,5590
3.46412,5667
3.46672,5123
3.46933,5473
3.47193,5884
3.47455,6215
3.47715,6194
3.47977,5531
3.48237,4988
3.48497,5482
3.48758,5544
3.49018,6014
3.49280,5598
3.49540,4805
3.49800,5821
3.50062,5206
3.50322,6171
3.50583,6332
3.50843,5260
3.51103,7370
3.51365,13163
3.51625,24190
3.51887,33712
3.52147,43939
3.52407,45784
3.52668,40447
3.52928,34661
3.53190,26669
3.53450,24570
3.53710,17389
3.53972,15029
3.54232,14377
3.54493,13953
3.54753,12111
3.55013,12780
3.55275,11639
3.55535,10414
3.55797,11537
3.56057,10846
3.56318,11723
3.56578,10122
3.56838,9294
3.57100,9480
3.57360,10397
3.57622,10053
3.57882,9980
3.58142,10118
3.58403,10795
3.58663,10484
3.58925,9827
3.59185,7948
3.59445,9597
3.59707,9614
3.59967,11345
3.60228,10212
3.60488,10323
3.60748,10669
3.61010,9610
3.61270,9205
3.61532,10055
3.61792,9175
3.62052,8103
3.62313,9702
3.62573,9216
3.62835,9889
3.63095,8822
3.63355,10220
3.63617,9541
3.63877,10717
3.64138,12245
3.64398,12411
3.64660,11890
3.64920,10742
3.65180,11887
3.65442,10948
3.65702,12208
3.65963,10666
3.66223,10555
3.66483,9366
3.66745,9190
3.67005,8351
3.67267,9519
3.67527,7993
3.67787,9332
3.68048,10043
3.68308,11139
3.68570,9007
3.68830,8880
3.69090,8220
3.69352,9628
3.69612,8554
3.69873,9075
3.70133,10249
3.70393,9006
3.70655,7593
3.70915,8559
3.71177,9722
3.71437,8905
3.71697,8651
3.71958,8251
3.72218,9012
3.72480,8099
3.72740,9350
3.73002,10707
3.73262,7875
3.73522,9392
3.73783,9188
3.74043,7980
3.74305,9382
3.74565,8662
3.74825,8250
3.75087,8009
3.75347,8765
3.75608,8977
3.75868,9721
3.76128,9654
3.76390,8109
3.76650,10679
3.76912,8593
3.77172,8456
3.77432,8634
3.77693,10641
3.77953,9576
3.78215,8725
3.78475,7283
3.78735,8517
3.78997,8849
3.79257,8751
3.79518,9260
3.79778,8704
3.80038,8306
3.80300,8032
3.80560,8574
3.80822,10116
3.81082,8336
3.81343,8754
3.81603,9806
3.81863,8734
3.82125,8284
3.82385,9017
3.82647,8486
3.82907,7722
3.83167,7599
3.83428,7216
3.83688,8916
3.83950,9902
3.84210,9562
3.84470,9617
3.84732,7316
3.84992,8435
3.85253,7971
3.85513,8768
3.85773,10185
3.86035,9015
3.86295,8701
3.86557,8171
3.86817,9131
3.87077,9284
3.87338,8070
3.87598,8088
3.87860,7879
3.88120,7233
3.88380,8561
3.88642,7983
3.88902,9698
3.89163,9029
3.89423,8334
3.89685,8332
3.89945,8977
3.90205,7982
3.90467,8674
3.90727,8209
3.90988,8616
3.91248,9365
3.91508,8842
3.91770,9391
3.92030,9840
3.92292,8801
3.92552,9328
3.92812,10985
3.93073,11236
3.93333,14657
3.93595,17638
3.93855,20429
3.94115,18555
3.94377,17268
3.94637,13738
3.94898,11650
3.95158,12625
3.95418,11607
3.95680,10150
3.95940,10198
3.96202,11416
3.96462,10503
3.96722,8247
3.96983,8165
3.97243,10772
3.97505,10098
3.97765,8577
3.98027,10622
3.98287,9632
3.98547,10034
3.98808,10050
3.99068,8733
3.99330,8734
3.99590,7953
3.99850,7630
4.00112,10312
4.00372,7936
4.00633,8831
4.00893,8568
4.01153,10703
4.01415,9317
4.01675,8387
4.01937,9127
4.02197,9732
4.02457,9432
4.02718,8355
4.02978,7871
4.03240,8790
4.03500,9325
4.03760,8431
4.04022,8765
4.04282,9722
4.04543,8296
4.04803,8012
4.05063,7598
4.05325,10622
4.05585,8939
4.05847,8984
4.06107,9311
4.06368,8289
4.06628,8636
4.06888,7260
4.07150,8177
4.07410,8054
4.07672,9239
4.07932,8389
4.08192,9222
4.08453,7557
4.08713,9650
4.08975,8786
4.09235,9579
4.09495,9542
4.09757,7099
4.10017,8811
4.10278,9279
4.10538,9578
4.10798,9441
4.11060,8215
4.11320,8499
4.11582,9548
4.11842,8429
4.12102,8749
4.12363,8314
4.12623,8265
4.12885,9115
4.13145,7861
4.13405,8918
4.13667,9236
4.13927,7932
4.14188,9094
4.14448,8100
4.14710,8533
4.14970,8871
4.15230,9405
4.15492,8159
4.15752,8737
4.16013,8809
4.16273,8818
4.16533,7916
4.16795,7645
4.17055,8689
4.17317,8319
4.17577,7630
4.17837,7582
4.18098,7626
4.18358,8805
4.18620,8366
4.18880,9539
4.19140,8733
4.19402,8758
4.19662,6912
4.19923,7340
4.20183,8792
4.20443,8628
4.20705,9524
4.20965,8735
4.21227,8121
4.21487,8214
4.21747,8457
4.22008,8874
4.22268,7997
4.22530,9078
4.22790,7944
4.23052,7024
4.23312,8480
4.23572,9010
4.23833,8013
4.24093,8870
4.24355,7572
4.24615,7727
4.24875,7962
4.25137,7982
4.25397,7790
4.25658,7413
4.25918,8515
4.26178,8168
4.26440,8574
4.26700,7251
4.26962,8294
4.27222,9450
4.27482,7448
4.27743,10209
4.28003,8532
4.28265,8096
4.28525,8124
4.28785,8961
4.29047,8193
4.29307,9624
4.29568,8343
4.29828,8419
4.30088,9524
4.30350,7550
4.30610,7576
4.30872,9072
4.31132,10874
4.31393,8222
4.31653,7563
4.31913,8279
4.32175,8534
4.32435,7552
4.32697,9698
4.32957,8350
4.33217,7885
4.33478,7966
4.33738,7700
4.34000,8669
4.34260,9937
4.34520,9170
4.34782,7756
4.35042,9732
4.35303,9571
4.35563,10522
4.35823,7711
4.36085,7845
4.36345,8277
4.36607,8010
4.36867,8495
4.37127,8691
4.37388,7824
4.37648,8200
4.37910,8667
4.38170,7942
4.38430,8445
4.38692,8497
4.38952,7818
4.39213,8062
4.39473,8579
4.39735,7638
4.39995,7941
4.40255,8603
4.40517,8753
4.40777,9257
4.41038,7306
4.41298,6707
4.41558,8102
4.41820,9102
4.42080,6401
4.42342,8680
4.42602,9734
4.42862,8087
4.43123,8978
4.43383,10286
4.43645,7117
4.43905,8528
4.44165,10657
4.44427,7985
4.44687,9289
4.44948,7885
4.45208,8569
4.45468,8196
4.45730,7166
4.45990,8724
4.46252,8369
4.46512,8495
4.46772,8575
4.47033,7651
4.47293,8238
4.47555,8402
4.47815,7959
4.48077,9042
4.48337,7501
4.48597,7528
4.48858,8854
4.49118,8738
4.49380,8350
4.49640,8020
4.49900,9097
4.50162,9100
4.50422,8834
4.50683,7706
4.50943,9203
4.51203,8826
4.51465,9292
4.51725,9084
4.51987,8407
4.52247,8283
4.52507,8721
4.52768,8549
4.53028,7999
4.53290,8535
4.53550,8069
4.53810,7821
4.54072,9108
4.54332,8547
4.54593,7550
4.54853,9228
4.55113,8065
4.55375,7663
4.55635,9059
4.55897,8522
4.56157,7409
4.56418,8945
4.56678,9626
4.56938,7398
4.57200,9312
4.57460,7605
4.57722,9019
4.57982,8769
4.58242,6700
4.58503,8921
4.58763,7814
4.59025,8167
4.59285,7147
4.59545,8367
4.59807,8751
4.60067,8311
4.60328,9231
4.60588,8168
4.60848,9052
4.61110,8555
4.61370,8587
4.61632,8270
4.61892,8704
4.62152,7266
4.62413,9615
4.62673,7601
4.62935,9185
4.63195,8612
4.63455,9161
4.63717,8830
4.63977,7460
4.64238,7698
4.64498,8202
4.64760,6707
4.65020,8136
4.65280,8769
4.65542,8553
4.65802,7677
4.66063,8378
4.66323,8923
4.66583,8881
4.66845,7250
4.67105,6651
4.67367,9175
4.67627,8395
4.67887,9735
4.68148,8024
4.68408,8457
4.68670,9735
4.68930,9313
4.69190,8928
4.69452,8653
4.69712,8014
4.69973,8464
4.70233,7565
4.70493,8332
4.70755,8980
4.71015,8506
4.71277,7626
4.71537,9213
4.71797,8253
4.72058,8581
4.72318,9323
4.72580,8352
4.72840,8694
4.73102,7794
4.73362,7724
4.73622,7779
4.73883,9304
4.74143,8651
4.74405,8041
4.74665,7539
4.74925,7538
4.75187,9112
4.75447,8215
4.75708,8809
4.75968,7327
4.76228,8196
4.76490,8505
4.76750,7390
4.77012,8086
4.77272,9036
4.77532,7336
4.77793,8466
4.78053,8378
4.78315,8545
4.78575,10576
4.78835,8579
4.79097,7399
4.79357,8789
4.79618,8739
4.79878,9177
4.80138,9522
4.80400,8411
4.80660,8179
4.80922,9607
4.81182,9150
4.81443,9408
4.81703,8521
4.81963,9158
4.82225,9596
4.82485,9007
4.82747,8281
4.83007,8624
4.83267,8619
4.83528,8752
4.83788,9265
4.84050,9222
4.84310,8496
4.84570,8513
4.84832,8061
4.85092,8224
4.85353,8870
4.85613,9126
4.85873,7846
4.86135,7913
4.86395,9051
4.86657,9076
4.86917,9687
4.87177,9067
4.87438,8519
4.87698,7876
4.87960,9570
4.88220,8438
4.88480,7617
4.88742,8224
4.89002,8584
4.89263,8639
4.89523,8039
4.89785,8118
4.90045,7014
4.90305,7663
4.90567,8318
4.90827,8450
4.91088,8191
4.91348,6743
4.91608,8707
4.91870,8865
4.92130,8712
4.92392,8076
4.92652,7910
4.92912,8326
4.93173,9021
4.93433,8803
4.93695,7867
4.93955,8656
4.94215,8020
4.94477,7339
4.94737,9154
4.94998,8502
4.95258,9148
4.95518,7976
4.95780,8648
4.96040,9056
4.96302,7802
4.96562,9099
4.96822,9176
4.97083,9300
4.97343,7965
4.97605,7875
4.97865,8239
4.98127,9632
4.98387,9195
4.98647,8345
4.98908,9124
4.99168,8561
4.99430,9487
4.99690,8455
4.99950,8927
5.00212,8903
5.00472,8429
5.00733,8447
5.00993,8075
5.01253,8455
5.01515,9916
5.01775,9259
5.02037,8526
5.02297,8768
5.02557,7467
5.02818,8911
5.03078,8478
5.03340,8894
5.03600,7875
5.03860,8055
5.04122,8027
5.04382,8628
5.04643,9132
5.04903,9139
5.05163,9470
5.05425,7184
5.05685,8172
5.05947,7853
5.06207,8024
5.06468,8872
5.06728,8439
5.06988,7920
5.07250,8830
5.07510,8705
5.07772,9798
5.08032,8460
5.08292,8603
5.08553,8439
5.08813,8022
5.09075,10057
5.09335,9169
5.09595,9977
5.09857,9446
5.10117,9405
5.10378,8424
5.10638,8004
5.10898,8410
5.11160,8179
5.11420,8724
5.11682,8540
5.11942,8776
5.12202,8885
5.12463,8218
5.12723,8479
5.12985,8796
5.13245,9064
5.13505,8094
5.13767,8858
5.14027,9779
5.14288,9555
5.14548,8616
5.14810,8504
5.15070,8449
5.15330,8962
5.15592,9149
5.15852,9089
5.16113,9323
5.16373,8114
5.16633,8409
5.16895,9602
5.17155,9055
5.17417,9360
5.17677,9419
5.17937,8678
5.18198,8310
5.18458,9237
5.18720,8507
5.18980,9113
5.19240,7556
5.19502,8808
5.19762,9279
5.20023,9338
5.20283,8139
5.20543,9553
5.20805,9627
5.21065,8567
5.21327,7544
5.21587,8915
5.21847,9413
5.22108,8765
5.22368,8798
5.22630,7416
5.22890,8483
5.23152,8455
5.23412,8893
5.23672,8101
5.23933,8181
5.24193,8516
5.24455,9012
5.24715,9459
5.24975,8981
5.25237,9503
5.25497,8892
5.25758,9444
5.26018,8379
5.26278,8825
5.26540,7959
5.26800,10027
5.27062,8152
5.27322,8430
5.27582,9423
5.27843,10348
5.28103,8972
5.28365,8956
5.28625,7323
5.28885,9445
5.29147,9603
5.29407,8402
5.29668,8839
5.29928,8644
5.30188,8602
5.30450,8603
5.30710,8912
5.30972,8339
5.31232,9062
5.31493,9725
5.31753,8004
5.32013,8477
5.32275,9753
5.32535,8171
5.32797,9498
5.33057,8465
5.33317,7835
5.33578,8916
5.33838,9586
5.34100,8637
5.34360,10513
5.34620,9018
5.34882,9403
5.35142,10176
5.35403,9041
5.35663,8034
5.35923,9292
5.36185,8611
5.36445,8429
5.36707,9178
5.36967,8830
5.37227,8718
5.37488,8464
5.37748,8830
5.38010,8115
5.38270,9828
5.38530,8355
5.38792,8537
5.39052,9790
5.39313,9543
5.39573,9737
5.39835,9570
5.40095,9315
5.40355,8747
5.40617,10396
5.40877,8574
5.41138,9103
5.41398,8330
5.41658,9986
5.41920,8762
5.42180,9993
5.42442,9737
5.42702,10376
5.42962,9461
5.43223,8460
5.43483,7845
5.43745,9252
5.44005,9378
5.44265,9635
5.44527,10730
5.44787,10472
5.45048,11131
5.45308,12976
5.45568,12803
5.45830,12824
5.46090,13261
5.46352,13084
5.46612,13997
5.46872,12322
5.47133,10000
5.47393,10590
5.47655,8540
5.47915,10091
5.48177,8508
5.48437,11142
5.48697,10021
5.48958,10217
5.49218,10373
5.49480,9618
5.49740,8667
5.50000,9684
5.50262,9610
5.50522,8776
5.50783,10365
5.51043,8017
5.51303,9131
5.51565,9469
5.51825,10885
5.52087,9611
5.52347,8963
5.52607,8528
5.52868,8914
5.53128,10262
5.53390,10254
5.53650,9202
5.53910,9285
5.54172,9290
5.54432,10466
5.54693,10046
5.54953,10628
5.55215,9122
5.55475,8832
5.55735,9503
5.55997,10908
5.56257,9974
5.56518,9843
5.56778,9205
5.57038,9198
5.57300,7517
5.57560,10103
5.57822,9691
5.58082,9693
5.58342,9052
5.58603,10153
5.58863,10945
5.59125,8650
5.59385,8773
5.59645,9142
5.59907,8962
5.60167,9081
5.60428,10528
5.60688,9105
5.60948,9787
5.61210,10525
5.61470,9296
5.61732,8906
5.61992,8781
5.62252,10984
5.62513,9713
5.62773,9512
5.63035,9078
5.63295,8478
5.63557,9399
5.63817,10896
5.64077,8847
5.64338,8871
5.64598,8934
5.64860,10577
5.65120,9465
5.65380,9683
5.65642,9558
5.65902,9379
5.66163,9672
5.66423,9906
5.66683,10072
5.66945,7805
5.67205,9390
5.67467,9369
5.67727,9171
5.67987,9305
5.68248,10090
5.68508,7503
5.68770,9515
5.69030,9010
5.69290,7858
5.69552,8715
5.69812,9107
5.70073,10100
5.70333,9094
5.70593,12559
5.70855,11591
5.71115,9074
5.71377,10222
5.71637,8758
5.71898,10857
5.72158,11208
5.72418,9953
5.72680,8923
5.72940,10862
5.73202,9942
5.73462,9470
5.73722,10000
5.73983,9129
5.74243,10313
5.74505,9273
5.74765,7935
5.75025,10766
5.75287,9883
5.75547,9694
5.75808,8130
5.76068,10843
5.76328,7959
5.76590,8565
5.76850,11174
5.77112,9347
5.77372,10440
5.77632,9038
5.77893,9386
5.78153,9055
5.78415,9562
5.78675,8271
5.78935,10810
5.79197,8823
5.79457,10765
5.79718,10781
5.79978,10450
5.80240,10064
5.80500,9693
5.80760,10639
5.81022,12961
5.81282,13301
5.81543,19806
5.81803,30914
5.82063,38931
5.82325,41740
5.82585,34905
5.82847,27685
5.83107,20440
5.83367,15504
5.83628,12647
5.83888,13605
5.84150,14056
5.84410,13478
5.84670,15075
5.84932,14031
5.85192,11042
5.85453,10880
5.85713,10212
5.85973,11215
5.86235,11216
5.86495,10830
5.86757,11262
5.87017,9213
5.87277,10845
5.87538,9846
5.87798,11407
5.88060,10060
5.88320,10222
5.88582,9964
5.88842,10593
5.89102,10131
5.89363,10059
5.89623,9260
5.89885,10694
5.90145,12512
5.90405,10028
5.90667,10700
5.90927,11437
5.91188,9261
5.91448,10965
5.91708,8808
5.91970,10346
5.92230,9995
5.92492,11659
5.92752,11541
5.93012,13265
5.93273,12399
5.93533,13296
5.93795,14398
5.94055,13501
5.94315,13501
5.94577,13434
5.94837,15417
5.95098,14132
5.95358,12207
5.95618,13997
5.95880,13023
5.96140,14131
5.96402,11926
5.96662,11641
5.96923,12487
5.97183,11559
5.97443,13222
5.97705,11528
5.97965,12179
5.98227,12173
5.98487,12896
5.98747,12298
5.99008,10665
5.99268,10980
5.99530,10229
5.99790,10103
6.00050,12938
6.00312,11416
6.00572,12179
6.00833,12480
6.01093,10022
6.01353,10860
6.01615,12059
6.01875,11194
6.02137,12274
6.02397,11608
6.02657,10668
6.02918,10264
6.03178,11388
6.03440,11145
6.03700,10381
6.03960,12969
6.04222,14372
6.04482,15723
6.04743,20085
6.05003,22079
6.05265,22445
6.05525,22226
6.05785,21285
6.06047,19265
6.06307,18196
6.06568,18152
6.06828,16077
6.07088,17042
6.07350,15115
6.07610,15168
6.07872,14194
6.08132,12256
6.08392,12724
6.08653,13075
6.08913,14271
6.09175,11323
6.09435,13565
6.09695,14127
6.09957,12080
6.10217,13651
6.10478,12822
6.10738,13920
6.10998,13963
6.11260,14286
6.11520,12368
6.11782,14529
6.12042,13542
6.12302,13135
6.12563,13895
6.12823,14256
6.13085,14887
6.13345,14776
6.13607,14682
6.13867,13742
6.14127,13665
6.14388,11915
6.14648,13379
6.14910,11079
6.15170,11571
6.15430,11921
6.15692,11745
6.15952,9403
6.16213,10988
6.16473,11423
6.16733,9353
6.16995,12602
6.17255,13027
6.17517,12794
6.17777,13891
6.18037,14030
6.18298,12354
6.18558,11885
6.18820,11542
6.19080,11449
6.19340,10976
6.19602,11463
6.19862,10404
6.20123,10966
6.20383,10745
6.20643,12635
6.20905,12428
6.21165,13165
6.21427,12477
6.21687,9721
6.21948,11844
6.22208,11837
6.22468,9977
6.22730,10151
6.22990,9962
6.23252,10451
6.23512,12729
6.23772,11394
6.24033,9821
6.24293,11552
6.24555,11044
6.24815,11876
6.25075,11106
6.25337,11158
6.25597,12432
6.25858,11407
6.26118,11314
6.26378,11725
6.26640,12438
6.26900,11797
6.27162,11482
6.27422,11469
6.27682,11959
6.27943,12746
6.28203,12420
6.28465,10463
6.28725,12089
6.28985,11002
6.29247,11575
6.29507,11853
6.29768,11162
6.30028,9994
6.30290,11347
6.30550,11680
6.30810,12436
6.31072,10798
6.31332,11380
6.31593,12158
6.31853,11925
6.32113,10220
6.32375,10674
6.32635,9967
6.32897,10559
6.33157,12190
6.33417,9485
6.33678,11158
6.33938,11482
6.34200,10066
6.34460,12013
6.34720,12644
6.34982,14233
6.35242,12415
6.35503,13601
6.35763,12338
6.36023,10555
6.36285,10923
6.36545,11229
6.36807,11943
6.37067,11092
6.37327,12814
6.37588,11637
6.37848,11668
6.38110,11214
6.38370,12133
6.38632,12925
6.38892,12596
6.39152,11149
6.39413,10203
6.39673,10449
6.39935,12348
6.40195,12175
6.40455,12701
6.40717,12614
6.40977,12085
6.41238,12804
6.41498,12969
6.41758,12038
6.42020,11942
6.42280,12203
6.42542,12891
6.42802,10805
6.43062,11034
6.43323,11512
6.43583,11026
6.43845,13207
6.44105,11179
6.44365,10574
6.44627,11144
6.44887,11123
6.45148,12373
6.45408,10581
6.45668,10988
6.45930,10314
6.46190,10620
6.46452,10798
6.46712,10949
6.46973,12075
6.47233,11462
6.47493,11972
6.47755,11752
6.48015,11256
6.48277,12178
6.48537,14616
6.48797,13942
6.49058,16805
6.49318,26506
6.49580,60423
6.49840,135430
6.50100,260668
6.50362,436270
6.50622,557141
6.50883,526476
6.51143,388608
6.51403,222863
6.51665,125466
6.51925,76242
6.52187,57607
6.52447,47547
6.52707,40789
6.52968,37567
6.53228,32921
6.53490,29960
6.53750,29892
6.54010,28096
6.54272,25025
6.54532,24673
6.54793,24886
6.55053,23010
6.55315,21053
6.55575,21332
6.55835,22193
6.56097,19660
6.56357,20929
6.56618,19625
6.56878,17867
6.57138,19174
6.57400,18085
6.57660,18401
6.57922,19096
6.58182,18225
6.58442,18156
6.58703,23430
6.58963,65226
6.59225,242509
6.59485,874861
6.59745,2573750
6.60007,5978841
6.60267,1.084714E+07
6.60528,1.705697E+07
6.60788,2.301517E+07
6.61048,2.766108E+07
6.61310,3.244343E+07
6.61570,3.603101E+07
6.61832,3.834375E+07
6.62092,3.598346E+07
6.62352,2.116304E+07
6.62613,5480498
6.62873,1162551
6.63135,416718
6.63395,254808
6.63657,188964
6.63917,158215
6.64177,128166
6.64438,111831
6.64698,100521
6.64960,88332
6.65220,82123
6.65480,72903
6.65742,71804
6.66002,63781
6.66263,61878
6.66523,56227
6.66783,54329
6.67045,53511
6.67305,48832
6.67567,49408
6.67827,46733
6.68087,43687
6.68348,42818
6.68608,41479
6.68870,37215
6.69130,37689
6.69390,36131
6.69652,38333
6.69912,32759
6.70173,35039
6.70433,32871
6.70693,33665
6.70955,33159
6.71215,30763
6.71477,29053
6.71737,30982
6.71998,29217
6.72258,28309
6.72518,30218
6.72780,29493
6.73040,27343
6.73302,27118
6.73562,28411
6.73822,28001
6.74083,26583
6.74343,27039
6.74605,26926
6.74865,25786
6.75125,27663
6.75387,25638
6.75647,23144
6.75908,24375
6.76168,24987
6.76428,25853
6.76690,26296
6.76950,26249
6.77212,29578
6.77472,26628
6.77732,26402
6.77993,24338
6.78253,23603
6.78515,24028
6.78775,23046
6.79035,18667
6.79297,23083
6.79557,22811
6.79818,20469
6.80078,21881
6.80340,19183
6.80600,22170
6.80860,20295
6.81122,22219
6.81382,18912
6.81643,20350
6.81903,20490
6.82163,22281
6.82425,19973
6.82685,19652
6.82947,18954
6.83207,19631
6.83467,19602
6.83728,20594
6.83988,20995
6.84250,18810
6.84510,20062
6.84770,22406
6.85032,18120
6.85292,18338
6.85553,22116
6.85813,22792
6.86073,27259
6.86335,38380
6.86595,44199
6.86857,48387
6.87117,53558
6.87377,67245
6.87638,83489
6.87898,116811
6.88160,144876
6.88420,154131
6.88682,129053
6.88942,91199
6.89202,69494
6.89463,45297
6.89723,39128
6.89985,35790
6.90245,31056
6.90505,29385
6.90767,28098
6.91027,27749
6.91288,28080
6.91548,23849
6.91808,25307
6.92070,25224
6.92330,23684
6.92592,24737
6.92852,25495
6.93112,26889
6.93373,30528
6.93633,33487
6.93895,35188
6.94155,37486
6.94415,31137
6.94677,27047
6.94937,23446
6.95198,23209
6.95458,23443
6.95718,23116
6.95980,23621
6.96240,23593
6.96502,23686
6.96762,25438
6.97023,22703
6.97283,20684
6.97543,18923
6.97805,20098
6.98065,22669
6.98327,19633
6.98587,19511
6.98847,18732
6.99108,19410
6.99368,18842
6.99630,18862
6.99890,19976
7.00150,20376
7.00412,21141
7.00672,22273
7.00933,20578
7.01193,21141
7.01453,20858
7.01715,18771
7.01975,18421
7.02237,19839
7.02497,20693
7.02757,19004
7.03018,18809
7.03278,19775
7.03540,17917
7.03800,19222
7.04060,17065
7.04322,19333
7.04582,20373
7.04843,21137
7.05103,18793
7.05365,19865
7.05625,19801
7.05885,18976
7.06147,19950
7.06407,18322
7.06668,20665
7.06928,19495
7.07188,18458
7.07450,17600
7.07710,17545
7.07972,17139
7.08232,18186
7.08492,18180
7.08753,20772
7.09013,16382
7.09275,18627
7.09535,17691
7.09795,15972
7.10057,17295
7.10317,19127
7.10578,20775
7.10838,18262
7.11098,17447
7.11360,17464
7.11620,17901
7.11882,19294
7.12142,16700
7.12402,18374
7.12663,15777
7.12923,16482
7.13185,18563
7.13445,16696
7.13707,16638
7.13967,16474
7.14227,18455
7.14488,19340
7.14748,18061
7.15010,16822
7.15270,17633
7.15530,16979
7.15792,18859
7.16052,17916
7.16313,17766
7.16573,17279
7.16833,18651
7.17095,16215
7.17355,18433
7.17617,17426
7.17877,16623
7.18137,17447
7.18398,18091
7.18658,17580
7.18920,15182
7.19180,17430
7.19440,19236
7.19702,18870
7.19962,18641
7.20223,19156
7.20483,18883
7.20743,19833
7.21005,20662
7.21265,23583
7.21527,22314
7.21787,22640
7.22048,19449
7.22308,20251
7.22568,18911
7.22830,18277
7.23090,17815
7.23352,18650
7.23612,20460
7.23872,20739
7.24133,21321
7.24393,21273
7.24655,21171
7.24915,18753
7.25175,17898
7.25437,18476
7.25697,17203
7.25958,17626
7.26218,18923
7.26478,18331
7.26740,17271
7.27000,16866
7.27262,17098
7.27522,19033
7.27782,18476
7.28043,17693
7.28303,18560
7.28565,18770
7.28825,19786
7.29085,18566
7.29347,18483
7.29607,18851
7.29868,17244
7.30128,17260
7.30390,17317
7.30650,18240
7.30910,17559
7.31172,16591
7.31432,19848
7.31693,18335
7.31953,19470
7.32213,18579
7.32475,18207
7.32735,13832
7.32997,17101
7.33257,17557
7.33517,19609
7.33778,18555
7.34038,17817
7.34300,18398
7.34560,17533
7.34820,17217
7.35082,16181
7.35342,18006
7.35603,19023
7.35863,18143
7.36123,16253
7.36385,18015
7.36645,18841
7.36907,17695
7.37167,16946
7.37427,18196
7.37688,17265
7.37948,17942
7.38210,16964
7.38470,17228
7.38732,18641
7.38992,18910
7.39252,19123
7.39513,18498
7.39773,17244
7.40035,17836
7.40295,17926
7.40555,18846
7.40817,18668
7.41077,19483
7.41338,19173
7.41598,17267
7.41858,20087
7.42120,17947
7.42380,19319
7.42642,18943
7.42902,16743
7.43162,18696
7.43423,17220
7.43683,20520
7.43945,18091
7.44205,18738
7.44465,18617
7.44727,17190
7.44987,18527
7.45248,20622
7.45508,18713
7.45768,21027
7.46030,18172
7.46290,18249
7.46552,17981
7.46812,18019
7.47073,19082
7.47333,18919
7.47593,20027
7.47855,19570
7.48115,17849
7.48377,18450
7.48637,18333
7.48897,17599
7.49158,20981
7.49418,21062
7.49680,24518
7.49940,23850
7.50200,23156
7.50462,23276
7.50722,21063
7.50983,19321
7.51243,20416
7.51503,19181
7.51765,19111
7.52025,21659
7.52287,21189
7.52547,21464
7.52807,22387
7.53068,21169
7.53328,22371
7.53590,21248
7.53850,23432
7.54110,20794
7.54372,18860
7.54632,17612
7.54893,19954
7.55153,20540
7.55415,19133
7.55675,19057
7.55935,22180
7.56197,20113
7.56457,20740
7.56718,18915
7.56978,21345
7.57238,21249
7.57500,22194
7.57760,23483
7.58022,22472
7.58282,24683
7.58542,25635
7.58803,25476
7.59063,23788
7.59325,22569
7.59585,20834
7.59845,21282
7.60107,19242
7.60367,19290
7.60628,21512
7.60888,19749
7.61148,19567
7.61410,20194
7.61670,19573
7.61932,20243
7.62192,20335
7.62452,22852
7.62713,22041
7.62973,21326
7.63235,21913
7.63495,19147
7.63757,21485
7.64017,21146
7.64277,22565
7.64538,20085
7.64798,20951
7.65060,18933
7.65320,18904
7.65580,20927
7.65842,22238
7.66102,22769
7.66363,20781
7.66623,21850
7.66883,22339
7.67145,23730
7.67405,22268
7.67667,24290
7.67927,24313
7.68187,22737
7.68448,24109
7.68708,23327
7.68970,21811
7.69230,21075
7.69490,20946
7.69752,19824
7.70012,23142
7.70273,20273
7.70533,22466
7.70793,21627
7.71055,21456
7.71315,19615
7.71577,20247
7.71837,22668
7.72098,21198
7.72358,21283
7.72618,22660
7.72880,22384
7.73140,21967
7.73402,20118
7.73662,19486
7.73922,20702
7.74183,21958
7.74443,23060
7.74705,22182
7.74965,21822
7.75225,19840
7.75487,22232
7.75747,22638
7.76008,21713
7.76268,21727
7.76528,22593
7.76790,22901
7.77050,22768
7.77312,23302
7.77572,22724
7.77832,24129
7.78093,22586
7.78353,22916
7.78615,23961
7.78875,22203
7.79135,24038
7.79397,21527
7.79657,22024
7.79918,23007
7.80178,22649
7.80440,22422
7.80700,22520
7.80960,22371
7.81222,21938
7.81482,23062
7.81743,22579
7.82003,23956
7.82263,27432
7.82525,28913
7.82785,30239
7.83047,31807
7.83307,30681
7.83567,27960
7.83828,26234
7.84088,24326
7.84350,23918
7.84610,24030
7.84870,24447
7.85132,23688
7.85392,23698
7.85653,20866
7.85913,23328
7.86173,23111
7.86435,24674
7.86695,23674
7.86957,23534
7.87217,22791
7.87477,24529
7.87738,25029
7.87998,24572
7.88260,22890
7.88520,24602
7.88782,25054
7.89042,25860
7.89302,23920
7.89563,23180
7.89823,24628
7.90085,23441
7.90345,24758
7.90605,25247
7.90867,28281
7.91127,28772
7.91388,27210
7.91648,26667
7.91908,23528
7.92170,26064
7.92430,25897
7.92692,23332
7.92952,25139
7.93212,25926
7.93473,24123
7.93733,24767
7.93995,25640
7.94255,25700
7.94515,24215
7.94777,27980
7.95037,25654
7.95298,28563
7.95558,26676
7.95818,26635
7.96080,25522
7.96340,26151
7.96602,26296
7.96862,24885
7.97123,25926
7.97383,24959
7.97643,25424
7.97905,26646
7.98165,24786
7.98427,28249
7.98687,25060
7.98947,24182
7.99208,27678
7.99468,26136
7.99730,26087
7.99990,25834
8.00250,27403
8.00512,25983
8.00772,26766
8.01033,28985
8.01293,26433
8.01553,25904
8.01815,28129
8.02075,29858
8.02337,27916
8.02597,27402
8.02857,27270
8.03118,26286
8.03378,27741
8.03640,27900
8.03900,26738
8.04160,26481
8.04422,28303
8.04682,28081
8.04943,28213
8.05203,29084
8.05465,31475
8.05725,44523
8.05985,119909
8.06247,394633
8.06507,1318512
8.06768,3711195
8.07028,8111846
8.07288,1.323365E+07
8.07550,1.780532E+07
8.07810,1.95299E+07
8.08072,1.75193E+07
8.08332,1.235983E+07
8.08592,6662457
8.08853,3221379
8.09113,1753228
8.09375,1138700
8.09635,842335
8.09895,649006
8.10157,531046
8.10417,427711
8.10678,377281
8.10938,330562
8.11198,278555
8.11460,250343
8.11720,227469
8.11982,204333
8.12242,188708
8.12502,178113
8.12763,153759
8.13023,150151
8.13285,134567
8.13545,126909
8.13807,121166
8.14067,109318
8.14327,106918
8.14588,101072
8.14848,91458
8.15110,91401
8.15370,88192
8.15630,81933
8.15892,82236
8.16152,75262
8.16413,74316
8.16673,69663
8.16933,69905
8.17195,70420
8.17455,70073
8.17717,72116
8.17977,78366
8.18237,71245
8.18498,70179
8.18758,64952
8.19020,63572
8.19280,59969
8.19540,57897
8.19802,57900
8.20062,53973
8.20323,52707
8.20583,53657
8.20843,55637
8.21105,53848
8.21365,54171
8.21627,48571
8.21887,47411
8.22148,49476
8.22408,48923
8.22668,48927
8.22930,46614
8.23190,47606
8.23452,44044
8.23712,43501
8.23972,44121
8.24233,45500
8.24493,44714
8.24755,45403
8.25015,44183
8.25275,41238
8.25537,44243
8.25797,46498
8.26058,42688
8.26318,43393
8.26578,45639
8.26840,45357
8.27100,41762
8.27362,42968
8.27622,44934
8.27882,43401
8.28143,39654
8.28403,42115
8.28665,44339
8.28925,42908
8.29185,40975
8.29447,43043
8.29707,46776
8.29968,42195
8.30228,43131
8.30490,41538
8.30750,46101
8.31010,41848
8.31272,43627
8.31532,43436
8.31793,40388
8.32053,43439
8.32313,42315
8.32575,41995
8.32835,42416
8.33097,42889
8.33357,43654
8.33617,43370
8.33878,44940
8.34138,42948
8.34400,45005
8.34660,45888
8.34920,41878
8.35182,44274
8.35442,40982
8.35703,44360
8.35963,42991
8.36223,46711
8.36485,42288
8.36745,43872
8.37007,42330
8.37267,44234
8.37527,43492
8.37788,42263
8.38048,42804
8.38310,41385
8.38570,40922
8.38832,43278
8.39092,44248
8.39352,45131
8.39613,47023
8.39873,40091
8.40135,42848
8.40395,44591
8.40655,45177
8.40917,46061
8.41177,46557
8.41438,44088
8.41698,40848
8.41958,46171
8.42220,43915
8.42480,44209
8.42742,44047
8.43002,44510
8.43262,42725
8.43523,48333
8.43783,43744
8.44045,45974
8.44305,47294
8.44565,47047
8.44827,45342
8.45087,45679
8.45348,46450
8.45608,47452
8.45868,46887
8.46130,45795
8.46390,47604
8.46652,45498
8.46912,48478
8.47173,50636
8.47433,51997
8.47693,52365
8.47955,53060
8.48215,52869
8.48477,52267
8.48737,52470
8.48997,49455
8.49258,49756
8.49518,53795
8.49780,50533
8.50040,51143
8.50300,54740
8.50562,61048
8.50822,64653
8.51083,64445
8.51343,70097
8.51603,66780
8.51865,59197
8.52125,57982
8.52387,56512
8.52647,55394
8.52907,54406
8.53168,56460
8.53428,57939
8.53690,57059
8.53950,54690
8.54210,54888
8.54472,56648
8.54732,55874
8.54993,56227
8.55253,54328
8.55515,55780
8.55775,58290
8.56035,54219
8.56297,55933
8.56557,56051
8.56818,58021
8.57078,55198
8.57338,58446
8.57600,54836
8.57860,57632
8.58122,55702
8.58382,55911
8.58642,59393
8.58903,58636
8.59163,63524
8.59425,59196
8.59685,61327
8.59945,56859
8.60207,62152
8.60467,60190
8.60728,62204
8.60988,59823
8.61248,57500
8.61510,62185
8.61770,60170
8.62032,65151
8.62292,59536
8.62552,61593
8.62813,64402
8.63073,64504
8.63335,64295
8.63595,64969
8.63857,61431
8.64117,64426
8.64377,65189
8.64638,60862
8.64898,66796
8.65160,65159
8.65420,69669
8.65680,67198
8.65942,67875
8.66202,68014
8.66463,71619
8.66723,71030
8.66983,68902
8.67245,71518
8.67505,69452
8.67767,69876
8.68027,69067
8.68287,70898
8.68548,71790
8.68808,71821
8.69070,71275
8.69330,74644
8.69590,73457
8.69852,73031
8.70112,76751
8.70373,74949
8.70633,74679
8.70893,81755
8.71155,79987
8.71415,86098
8.71677,84986
8.71937,81915
8.72198,85099
8.72458,83848
8.72718,84096
8.72980,85662
8.73240,83512
8.73502,82432
8.73762,83767
8.74022,84681
8.74283,84665
8.74543,79583
8.74805,80213
8.75065,80501
8.75325,77988
8.75587,82292
8.75847,80583
8.76108,80678
8.76368,83625
8.76628,79460
8.76890,81432
8.77150,79662
8.77412,82315
8.77672,82578
8.77932,82364
8.78193,81879
8.78453,82652
8.78715,80332
8.78975,81663
8.79235,84904
8.79497,82725
8.79757,82623
8.80018,84760
8.80278,89481
8.80540,83295
8.80800,84947
8.81060,85436
8.81322,85986
8.81582,87817
8.81843,85542
8.82103,86779
8.82363,87285
8.82625,86802
8.82885,88880
8.83147,85982
8.83407,83754
8.83667,90923
8.83928,87565
8.84188,86593
8.84450,89603
8.84710,91150
8.84970,89996
8.85232,84732
8.85492,93080
8.85753,89350
8.86013,93061
8.86273,90782
8.86535,91891
8.86795,89928
8.87057,93191
8.87317,91219
8.87577,91081
8.87838,88538
8.88098,91596
8.88360,91279
8.88620,88730
8.88882,89392
8.89142,90667
8.89402,89139
8.89663,89865
8.89923,94385
8.90185,91521
8.90445,89073
8.90705,95587
8.90967,93035
8.91227,93185
8.91488,92454
8.91748,97584
8.92008,93624
8.92270,95791
8.92530,97041
8.92792,99978
8.93052,97225
8.93312,95190
8.93573,98508
8.93833,99049
8.94095,102172
8.94355,97547
8.94615,98483
8.94877,96746
8.95137,95741
8.95398,95226
8.95658,97378
8.95918,96608
8.96180,97947
8.96440,96821
8.96702,97263
8.96962,94927
8.97223,96101
8.97483,97365
8.97743,97149
8.98005,97947
8.98265,101291
8.98527,98179
8.98787,100653
8.99047,99104
8.99308,103296
8.99568,99089
8.99830,100634
9.00090,96934
9.00350,100402
9.00612,97940
9.00872,105229
9.01133,99237
9.01393,97615
9.01653,102064
9.01915,99756
9.02175,96839
9.02437,100553
9.02697,99495
9.02957,103486
9.03218,97062
9.03478,98231
9.03740,100633
9.04000,101343
9.04260,99239
9.04522,104554
9.04782,102655
9.05043,101402
9.05303,98818
9.05565,106339
9.05825,99064
9.06085,102507
9.06347,104820
9.06607,102258
9.06868,99256
9.07128,103788
9.07388,103804
9.07650,102315
9.07910,101413
9.08172,103393
9.08432,100841
9.08692,100227
9.08953,103051
9.09213,103013
9.09475,101633
9.09735,101644
9.09995,104178
9.10257,104344
9.10517,103960
9.10778,100266
9.11038,103473
9.11298,103511
9.11560,110874
9.11820,105339
9.12082,108768
9.12342,107685
9.12602,105445
9.12863,105822
9.13123,104361
9.13385,105851
9.13645,104817
9.13907,107405
9.14167,103093
9.14427,104438
9.14688,106388
9.14948,103568
9.15210,104016
9.15470,104683
9.15730,101725
9.15992,104872
9.16252,104986
9.16513,102539
9.16773,104160
9.17033,104360
9.17295,102129
9.17555,107107
9.17817,100742
9.18077,100675
9.18337,102271
9.18598,107979
9.18858,104779
9.19120,106476
9.19380,108900
9.19640,110531
9.19902,116285
9.20162,108697
9.20423,111794
9.20683,109849
9.20943,108841
9.21205,106585
9.21465,104567
9.21727,108900
9.21987,102916
9.22248,103260
9.22508,101954
9.22768,102555
9.23030,99146
9.23290,106223
9.23552,108146
9.23812,106201
9.24072,103457
9.24333,103212
9.24593,104761
9.24855,107521
9.25115,102987
9.25375,101723
9.25637,106959
9.25897,103383
9.26158,100861
9.26418,105768
9.26678,105545
9.26940,105003
9.27200,102279
9.27462,103420
9.27722,104382
9.27982,99137
9.28243,104005
9.28503,104896
9.28765,107713
9.29025,101548
9.29285,103530
9.29547,104526
9.29807,103672
9.30068,105992
9.30328,104018
9.30590,109403
9.30850,103475
9.31110,103099
9.31372,103739
9.31632,102852
9.31893,103279
9.32153,102349
9.32413,106079
9.32675,104068
9.32935,104977
9.33197,105960
9.33457,104128
9.33717,101592
9.33978,104187
9.34238,108592
9.34500,103618
9.34760,103640
9.35020,104204
9.35282,104973
9.35542,105869
9.35803,105604
9.36063,106471
9.36323,108297
9.36585,102193
9.36845,106178
9.37107,109029
9.37367,105613
9.37627,103722
9.37888,111544
9.38148,104338
9.38410,105456
9.38670,107899
9.38932,106179
9.39192,104393
9.39452,101264
9.39713,102848
9.39973,105090
9.40235,101124
9.40495,102095
9.40755,103481
9.41017,104675
9.41277,108800
9.41538,103985
9.41798,102207
9.42058,105600
9.42320,108697
9.42580,107004
9.42842,102775
9.43102,99076
9.43362,103229
9.43623,106291
9.43883,104097
9.44145,100890
9.44405,106319
9.44665,104336
9.44927,107165
9.45187,104839
9.45448,108054
9.45708,106887
9.45968,106230
9.46230,105618
9.46490,108025
9.46752,106495
9.47012,104978
9.47273,103013
9.47533,103085
9.47793,106779
9.48055,107087
9.48315,103879
9.48577,104830
9.48837,105727
9.49097,103450
9.49358,100059
9.49618,106011
9.49880,103813
9.50140,104437
9.50400,101607
9.50662,104227
9.50922,108765
9.51183,105919
9.51443,106770
9.51703,103812
9.51965,106943
9.52225,103501
9.52487,103957
9.52747,104853
9.53007,103536
9.53268,99496
9.53528,105247
9.53790,100532
9.54050,102652
9.54310,101893
9.54572,101981
9.54832,106012
9.55093,105419
9.55353,106229
9.55615,107173
9.55875,106270
9.56135,103208
9.56397,106995
9.56657,104050
9.56918,105339
9.57178,105310
9.57438,104868
9.57700,105217
9.57960,100930
9.58222,107581
9.58482,102544
9.58742,106072
9.59003,105988
9.59263,102714
9.59525,101252
9.59785,103027
9.60045,103492
9.60307,104389
9.60567,104072
9.60828,101987
9.61088,105053
9.61348,106002
9.61610,103120
9.61870,104691
9.62132,102720
9.62392,106083
9.62652,102869
9.62913,108206
9.63173,103796
9.63435,103317
9.63695,104921
9.63957,109578
9.64217,106137
9.64477,103526
9.64738,104209
9.64998,104639
9.65260,104818
9.65520,108450
9.65780,106662
9.66042,107730
9.66302,105065
9.66563,103432
9.66823,103343
9.67083,108598
9.67345,103292
9.67605,105185
9.67867,105038
9.68127,106734
9.68387,106884
9.68648,105603
9.68908,101521
9.69170,105099
9.69430,100359
9.69690,101494
9.69952,104139
9.70212,104895
9.70473,104796
9.70733,104682
9.70993,103388
9.71255,105166
9.71515,105876
9.71777,104002
9.72037,105183
9.72298,105808
9.72558,101084
9.72818,102958
9.73080,102281
9.73340,104803
9.73602,106774
9.73862,105123
9.74122,101377
9.74383,103302
9.74643,106972
9.74905,105727
9.75165,104075
9.75425,103835
9.75687,106519
9.75947,105380
9.76208,101435
9.76468,103442
9.76728,99041
9.76990,103311
9.77250,103507
9.77512,108029
9.77772,100599
9.78032,109291
9.78293,103634
9.78553,103265
9.78815,104243
9.79075,107559
9.79335,107517
9.79597,105397
9.79857,100753
9.80118,106396
9.80378,109743
9.80640,103054
9.80900,107961
9.81160,109989
9.81422,105290
9.81682,104043
9.81943,107113
9.82203,102604
9.82463,105979
9.82725,108674
9.82985,103953
9.83247,101675
9.83507,108759
9.83767,102824
9.84028,106141
9.84288,102781
9.84550,109110
9.84810,103010
9.85070,101680
9.85332,106802
9.85592,107160
9.85853,99474
9.86113,105719
9.86373,105109
9.86635,98373
9.86895,100987
9.87157,106358
9.87417,105812
9.87677,108968
9.87938,103515
9.88198,107989
9.88460,105836
9.88720,105215
9.88982,104632
9.89242,108031
9.89502,107582
9.89763,108327
9.90023,102702
9.90285,105629
9.90545,105694
9.90805,105582
9.91067,104029
9.91327,100533
9.91588,102680
9.91848,109557
9.92108,103877
9.92370,108194
9.92630,103840
9.92892,106915
9.93152,104979
9.93412,100287
9.93673,106320
9.93933,103934
9.94195,103197
9.94455,101620
9.94715,108133
9.94977,105397
9.95237,105558
9.95498,103986
9.95758,103951
9.96018,104413
9.96280,102745
9.96540,104287
9.96802,105484
9.97062,102493
9.97323,106704
9.97583,103215
9.97843,105864
9.98105,103079
9.98365,100444
9.98627,107979
9.98887,107475
9.99147,102591
9.99408,105912
9.99668,107989
9.99930,104489
10.00190,105442
10.00450,104024
10.00712,103397
10.00972,107764
10.01233,105151
10.01493,102555
10.01753,106388
10.02015,107768
10.02275,105556
10.02537,107614
10.02797,110152
10.03057,105694
10.03318,107567
10.03578,104120
10.03840,104284
10.04100,107586
10.04360,108018
10.04622,105690
10.04882,102259
10.05143,108255
10.05403,111429
10.05665,107632
10.05925,103947
10.06185,104731
10.06447,104020
10.06707,106483
10.06968,105955
10.07228,104115
10.07488,106011
10.07750,111501
10.08010,106923
10.08272,109743
10.08532,108136
10.08792,107620
10.09053,101411
10.09313,107938
10.09575,104235
10.09835,105550
10.10095,106901
10.10357,111302
10.10617,106657
10.10878,107575
10.11138,105277
10.11398,108837
10.11660,106004
10.11920,106150
10.12182,108756
10.12442,103776
10.12702,105269
10.12963,106908
10.13223,105945
10.13485,108707
10.13745,104724
10.14007,109613
10.14267,105179
10.14527,106473
10.14788,104979
10.15048,105916
10.15310,102785
10.15570,106628
10.15830,107073
10.16092,103081
10.16352,106292
10.16613,109029
10.16873,103244
10.17133,104661
10.17395,106889
10.17655,105567
10.17917,108218
10.18177,105064
10.18437,104464
10.18698,102176
10.18958,109364
10.19220,107727
10.19480,107081
10.19740,101865
10.20002,100620
10.20262,104787
10.20523,106562
10.20783,105370
10.21043,106595
10.21305,105748
10.21565,108592
10.21827,109284
10.22087,108993
10.22348,107214
10.22608,103656
10.22868,102942
10.23130,106871
10.23390,101566
10.23652,107320
10.23912,105323
10.24172,107397
10.24433,107699
10.24693,106314
10.24955,104220
10.25215,104904
10.25475,102066
10.25737,105935
10.25997,104229
10.26258,104831
10.26518,105983
10.26778,103850
10.27040,102448
10.27300,105588
10.27562,105693
10.27822,110197
10.28082,104934
10.28343,105993
10.28603,104482
10.28865,105164
10.29125,103221
10.29385,106739
10.29647,103544
10.29907,106812
10.30168,103754
10.30428,103370
10.30690,103579
10.30950,107100
10.31210,103790
10.31472,106805
10.31732,102943
10.31993,106104
10.32253,108882
10.32513,102108
10.32775,106146
10.33035,106539
10.33297,110608
10.33557,105841
10.33817,103482
10.34078,105275
10.34338,107624
10.34600,102579
10.34860,104485
10.35120,108115
10.35382,106790
10.35642,104421
10.35903,99123
10.36163,106028
10.36423,105447
10.36685,104694
10.36945,105047
10.37207,105902
10.37467,105646
10.37727,104371
10.37988,109648
10.38248,107055
10.38510,103674
10.38770,102781
10.39032,103692
10.39292,103841
10.39552,105228
10.39813,108949
10.40073,104914
10.40335,109955
10.40595,107355
10.40855,105982
10.41117,105491
10.41377,104617
10.41638,103706
10.41898,105417
10.42158,103652
10.42420,104220
10.42680,103198
10.42942,105895
10.43202,105328
10.43462,107659
10.43723,104729
10.43983,107562
10.44245,110183
10.44505,106606
10.44765,109213
10.45027,108278
10.45287,106140
10.45548,106651
10.45808,110362
10.46068,107204
10.46330,105084
10.46590,110126
10.46852,105053
10.47112,107166
10.47373,110340
10.47633,108908
10.47893,107746
10.48155,112297
10.48415,108899
10.48677,108856
10.48937,104949
10.49197,104298
10.49458,109755
10.49718,107125
10.49980,108034
10.50240,107695
10.50500,104829
10.50762,109682
10.51022,107114
10.51283,104902
10.51543,106799
10.51803,106923
10.52065,107294
10.52325,107050
10.52587,108728
10.52847,107044
10.53107,107931
10.53368,103740
10.53628,103271
10.53890,103989
10.54150,107767
10.54410,104109
10.54672,105080
10.54932,106161
10.55193,106452
10.55453,106722
10.55715,108408
10.55975,108549
10.56235,107318
10.56497,106136
10.56757,107913
10.57018,105869
10.57278,103105
10.57538,107542
10.57800,106541
10.58060,104339
10.58322,102737
10.58582,105806
10.58842,103043
10.59103,108651
10.59363,108682
10.59625,107678
10.59885,103915
10.60145,105081
10.60407,107742
10.60667,104131
10.60928,106685
10.61188,107800
10.61448,109145
10.61710,111345
10.61970,105522
10.62232,105745
10.62492,102813
10.62752,104697
10.63013,105361
10.63273,106528
10.63535,105468
10.63795,103503
10.64057,106430
10.64317,107648
10.64577,103698
10.64838,105123
10.65098,107386
10.65360,104614
10.65620,104719
10.65880,106757
10.66142,106458
10.66402,103265
