D:\data\overige2021\rk\20200201rk_cocacase28x\B039751.D Mon Feb 01 16:25:00 2021
Start of data points
1.58975,12912
1.59235,12630
1.59497,12126
1.59757,15561
1.60018,12427
1.60278,12803
1.60540,12924
1.60800,12280
1.61060,13839
1.61322,12188
1.61582,13887
1.61843,13412
1.62103,12963
1.62363,13421
1.62625,12643
1.62885,12229
1.63147,13823
1.63407,11531
1.63667,9509
1.63928,11822
1.64188,11645
1.64450,12314
1.64710,10975
1.64970,11721
1.65232,11321
1.65492,11185
1.65753,10343
1.66013,10636
1.66273,12494
1.66535,9979
1.66795,10469
1.67057,9320
1.67317,10119
1.67577,8944
1.67838,8853
1.68098,10483
1.68360,10234
1.68620,10091
1.68882,10648
1.69142,11120
1.69402,9697
1.69663,9827
1.69923,10230
1.70185,9744
1.70445,9744
1.70705,10021
1.70967,10484
1.71227,9532
1.71488,9699
1.71748,10310
1.72008,10296
1.72270,10517
1.72530,9312
1.72792,9172
1.73052,10265
1.73312,9863
1.73573,9137
1.73833,10248
1.74095,8512
1.74355,8521
1.74615,10751
1.74877,9212
1.75137,8125
1.75398,8308
1.75658,8987
1.75918,8586
1.76180,9022
1.76440,7416
1.76702,8458
1.76962,7650
1.77223,7313
1.77483,7752
1.77743,8856
1.78005,7930
1.78265,7679
1.78527,7372
1.78787,6953
1.79047,8911
1.79308,9805
1.79568,9159
1.79830,8353
1.80090,7879
1.80350,7833
1.80612,9521
1.80872,7610
1.81133,9408
1.81393,7078
1.81653,9182
1.81915,6190
1.82175,8025
1.82437,6803
1.82697,7204
1.82957,6832
1.83218,8549
1.83478,6988
1.83740,6975
1.84000,7225
1.84260,7008
1.84522,6994
1.84782,6123
1.85043,7517
1.85303,7057
1.85565,7108
1.85825,7049
1.86085,6934
1.86347,5851
1.86607,8486
1.86868,8186
1.87128,6772
1.87388,7710
1.87650,7157
1.87910,6511
1.88172,7264
1.88432,6646
1.88692,6852
1.88953,5629
1.89213,6397
1.89475,7407
1.89735,6796
1.89995,7154
1.90257,6682
1.90517,7069
1.90778,7026
1.91038,7622
1.91298,7624
1.91560,7495
1.91820,5485
1.92082,6497
1.92342,6549
1.92602,7307
1.92863,6469
1.93123,7235
1.93385,7611
1.93645,6346
1.93907,6955
1.94167,6309
1.94427,5487
1.94688,6916
1.94948,5666
1.95210,5374
1.95470,7197
1.95730,6948
1.95992,6395
1.96252,6061
1.96513,6238
1.96773,6374
1.97033,6349
1.97295,6271
1.97555,6038
1.97817,5573
1.98077,5515
1.98337,6397
1.98598,6840
1.98858,6105
1.99120,5132
1.99380,5796
1.99640,4919
1.99902,6170
2.00162,6357
2.00423,5832
2.00683,6031
2.00943,4767
2.01205,6772
2.01465,5434
2.01727,6405
2.01987,6106
2.02248,5329
2.02508,6270
2.02768,6296
2.03030,6899
2.03290,6660
2.03552,7239
2.03812,7305
2.04072,7599
2.04333,10138
2.04593,9052
2.04855,9842
2.05115,9080
2.05375,9609
2.05637,8643
2.05897,7772
2.06158,8800
2.06418,6878
2.06678,7507
2.06940,8938
2.07200,8143
2.07462,6516
2.07722,6647
2.07982,7213
2.08243,6251
2.08503,6386
2.08765,6598
2.09025,6355
2.09285,5943
2.09547,7258
2.09807,7461
2.10068,6085
2.10328,7143
2.10590,6789
2.10850,6914
2.11110,6520
2.11372,5930
2.11632,5923
2.11893,5718
2.12153,5266
2.12413,5979
2.12675,6813
2.12935,6156
2.13197,5997
2.13457,6502
2.13717,6487
2.13978,6702
2.14238,5420
2.14500,6261
2.14760,6506
2.15020,6314
2.15282,4824
2.15542,6098
2.15803,5876
2.16063,5242
2.16323,6873
2.16585,6713
2.16845,5691
2.17107,7091
2.17367,6484
2.17627,6747
2.17888,6191
2.18148,5778
2.18410,5567
2.18670,5264
2.18932,5291
2.19192,5013
2.19452,5443
2.19713,4691
2.19973,7039
2.20235,6390
2.20495,5364
2.20755,7212
2.21017,6342
2.21277,6310
2.21538,5960
2.21798,6701
2.22058,5090
2.22320,5086
2.22580,4639
2.22842,6543
2.23102,4632
2.23362,4773
2.23623,5165
2.23883,5323
2.24145,5509
2.24405,4713
2.24665,6127
2.24927,5450
2.25187,6526
2.25448,6014
2.25708,5942
2.25968,6158
2.26230,4909
2.26490,5655
2.26752,5380
2.27012,5581
2.27273,5071
2.27533,4501
2.27793,6103
2.28055,5149
2.28315,4729
2.28577,5593
2.28837,5567
2.29097,5025
2.29358,6394
2.29618,6881
2.29880,6556
2.30140,6450
2.30400,5699
2.30662,5133
2.30922,5691
2.31183,5794
2.31443,4643
2.31703,5087
2.31965,5282
2.32225,6053
2.32487,4404
2.32747,5153
2.33007,6267
2.33268,6023
2.33528,5519
2.33790,4842
2.34050,5001
2.34310,5499
2.34572,5705
2.34832,5373
2.35093,4606
2.35353,6499
2.35615,5522
2.35875,5402
2.36135,5966
2.36397,7256
2.36657,5306
2.36918,5924
2.37178,4152
2.37438,4453
2.37700,5621
2.37960,4989
2.38222,5667
2.38482,5706
2.38742,5682
2.39003,5996
2.39263,6449
2.39525,5380
2.39785,4536
2.40045,6504
2.40307,4990
2.40567,4225
2.40828,5634
2.41088,4765
2.41348,4515
2.41610,5909
2.41870,5820
2.42132,5135
2.42392,6491
2.42652,5277
2.42913,4848
2.43173,5495
2.43435,4583
2.43695,4253
2.43957,4833
2.44217,5644
2.44477,5762
2.44738,6221
2.44998,4822
2.45260,5626
2.45520,6318
2.45780,6338
2.46042,7814
2.46302,8953
2.46563,7466
2.46823,8138
2.47083,7561
2.47345,6458
2.47605,6488
2.47867,6620
2.48127,6734
2.48387,8183
2.48648,6719
2.48908,7732
2.49170,6097
2.49430,4797
2.49690,5624
2.49952,6834
2.50212,5961
2.50473,6766
2.50733,5265
2.50993,6122
2.51255,4479
2.51515,5816
2.51777,6176
2.52037,4880
2.52298,5874
2.52558,5313
2.52818,6437
2.53080,5393
2.53340,7194
2.53602,5582
2.53862,5224
2.54122,4478
2.54383,5694
2.54643,5928
2.54905,5304
2.55165,4300
2.55425,5973
2.55687,5860
2.55947,5653
2.56208,4275
2.56468,5568
2.56728,5161
2.56990,5178
2.57250,5524
2.57512,6162
2.57772,5531
2.58032,6366
2.58293,5291
2.58553,5095
2.58815,5388
2.59075,5083
2.59335,6167
2.59597,5631
2.59857,5533
2.60118,6335
2.60378,4915
2.60640,6346
2.60900,4662
2.61160,4404
2.61422,4965
2.61682,5224
2.61943,5910
2.62203,5484
2.62463,4630
2.62725,6115
2.62985,5999
2.63247,5308
2.63507,5005
2.63767,5658
2.64028,5988
2.64288,6198
2.64550,5491
2.64810,5003
2.65070,4209
2.65332,5358
2.65592,5177
2.65853,5184
2.66113,5897
2.66373,4302
2.66635,4991
2.66895,4451
2.67157,4271
2.67417,4860
2.67677,4941
2.67938,5561
2.68198,4944
2.68460,5156
2.68720,4987
2.68982,4701
2.69242,5127
2.69502,5120
2.69763,5131
2.70023,3775
2.70285,5224
2.70545,5603
2.70805,5294
2.71067,4697
2.71327,4548
2.71588,5600
2.71848,5371
2.72108,6031
2.72370,5277
2.72630,5207
2.72892,5569
2.73152,4947
2.73412,4804
2.73673,3638
2.73933,5237
2.74195,5671
2.74455,4758
2.74715,5546
2.74977,4282
2.75237,4685
2.75498,6093
2.75758,5616
2.76018,5200
2.76280,5622
2.76540,5456
2.76802,5971
2.77062,6529
2.77323,5882
2.77583,5878
2.77843,5634
2.78105,5824
2.78365,5175
2.78627,4454
2.78887,5722
2.79147,5911
2.79408,5139
2.79668,6440
2.79930,5743
2.80190,5512
2.80450,6809
2.80712,4642
2.80972,5614
2.81233,6290
2.81493,5097
2.81753,5896
2.82015,5585
2.82275,6182
2.82537,5929
2.82797,4016
2.83057,3827
2.83318,4430
2.83578,4828
2.83840,5498
2.84100,5556
2.84360,4463
2.84622,5561
2.84882,3974
2.85143,5393
2.85403,6069
2.85665,5195
2.85925,5406
2.86185,5872
2.86447,4741
2.86707,5486
2.86968,6142
2.87228,4880
2.87488,5034
2.87750,4950
2.88010,5955
2.88272,6226
2.88532,5959
2.88792,4242
2.89053,5357
2.89313,4622
2.89575,5616
2.89835,6072
2.90095,5513
2.90357,6082
2.90617,5114
2.90878,5170
2.91138,5412
2.91398,5251
2.91660,5195
2.91920,4517
2.92182,5187
2.92442,5625
2.92702,6126
2.92963,5315
2.93223,4803
2.93485,5767
2.93745,4093
2.94007,5196
2.94267,6247
2.94527,5252
2.94788,5394
2.95048,4863
2.95310,5452
2.95570,4791
2.95830,4394
2.96092,3760
2.96352,4038
2.96613,4452
2.96873,5227
2.97133,4560
2.97395,5380
2.97655,5965
2.97917,6213
2.98177,6512
2.98437,7074
2.98698,6108
2.98958,4647
2.99220,5206
2.99480,5113
2.99740,4861
3.00002,6434
3.00262,4703
3.00523,5029
3.00783,5076
3.01043,4352
3.01305,5456
3.01565,6225
3.01827,5155
3.02087,5443
3.02348,6060
3.02608,6115
3.02868,4759
3.03130,4849
3.03390,3852
3.03652,5717
3.03912,5853
3.04172,4945
3.04433,5675
3.04693,5042
3.04955,4634
3.05215,4960
3.05475,3891
3.05737,5828
3.05997,5106
3.06258,4955
3.06518,4432
3.06778,5976
3.07040,4386
3.07300,4915
3.07562,5349
3.07822,5889
3.08082,4952
3.08343,6163
3.08603,4880
3.08865,5115
3.09125,5146
3.09385,5559
3.09647,5492
3.09907,5536
3.10168,5046
3.10428,4714
3.10690,5302
3.10950,4939
3.11210,4854
3.11472,6660
3.11732,7911
3.11993,11223
3.12253,15449
3.12513,18812
3.12775,19091
3.13035,21587
3.13297,18609
3.13557,18958
3.13817,17042
3.14078,16647
3.14338,15184
3.14600,13645
3.14860,12241
3.15120,12146
3.15382,11406
3.15642,11834
3.15903,12240
3.16163,9697
3.16423,10083
3.16685,7188
3.16945,7502
3.17207,7896
3.17467,8298
3.17727,8567
3.17988,8840
3.18248,8405
3.18510,8653
3.18770,6248
3.19032,7230
3.19292,7274
3.19552,7893
3.19813,7559
3.20073,6513
3.20335,6519
3.20595,7366
3.20855,6698
3.21117,6203
3.21377,7175
3.21638,7007
3.21898,6719
3.22158,6540
3.22420,6495
3.22680,5812
3.22942,6809
3.23202,6352
3.23462,6684
3.23723,5718
3.23983,7024
3.24245,5482
3.24505,7090
3.24765,6251
3.25027,6275
3.25287,6076
3.25548,6228
3.25808,6307
3.26068,5913
3.26330,5985
3.26590,4844
3.26852,6708
3.27112,5725
3.27373,5612
3.27633,6833
3.27893,3907
3.28155,6031
3.28415,6280
3.28677,6243
3.28937,6543
3.29197,5990
3.29458,5987
3.29718,6948
3.29980,4568
3.30240,6105
3.30500,5586
3.30762,6191
3.31022,5343
3.31283,5416
3.31543,6539
3.31803,5666
3.32065,5509
3.32325,6252
3.32587,5849
3.32847,5224
3.33107,5076
3.33368,5681
3.33628,5442
3.33890,5476
3.34150,6255
3.34410,5747
3.34672,5546
3.34932,5839
3.35193,5677
3.35453,4022
3.35715,5766
3.35975,6091
3.36235,6170
3.36497,5849
3.36757,6366
3.37018,4758
3.37278,5146
3.37538,5414
3.37800,4833
3.38060,6143
3.38322,5366
3.38582,6672
3.38842,4829
3.39103,6617
3.39363,6323
3.39625,7998
3.39885,8493
3.40145,8855
3.40407,8033
3.40667,7114
3.40928,8212
3.41188,8466
3.41448,7107
3.41710,6279
3.41970,6959
3.42232,7344
3.42492,6543
3.42752,6948
3.43013,7664
3.43273,6317
3.43535,5469
3.43795,6971
3.44057,6751
3.44317,7834
3.44577,5966
3.44838,6628
3.45098,5347
3.45360,5432
3.45620,5017
3.45880,6539
3.46142,6358
3.46402,7446
3.46663,5914
3.46923,6528
3.47183,6889
3.47445,6794
3.47705,5913
3.47967,5365
3.48227,5773
3.48487,4749
3.48748,5743
3.49008,4860
3.49270,5351
3.49530,6873
3.49790,5195
3.50052,5918
3.50312,5475
3.50573,5462
3.50833,8059
3.51093,10133
3.51355,21438
3.51615,30041
3.51877,42744
3.52137,51421
3.52398,46445
3.52658,39689
3.52918,31539
3.53180,23389
3.53440,20689
3.53702,15637
3.53962,14867
3.54222,13739
3.54483,12119
3.54743,10505
3.55005,10021
3.55265,12098
3.55525,10887
3.55787,10589
3.56047,9957
3.56308,10207
3.56568,10428
3.56828,7993
3.57090,10469
3.57350,8726
3.57612,8756
3.57872,10814
3.58132,9233
3.58393,8818
3.58653,10044
3.58915,10946
3.59175,8303
3.59435,8317
3.59697,11346
3.59957,9908
3.60218,10314
3.60478,10986
3.60740,10003
3.61000,11247
3.61260,9481
3.61522,9712
3.61782,9278
3.62043,9151
3.62303,10545
3.62563,9287
3.62825,8548
3.63085,9587
3.63347,11041
3.63607,10373
3.63867,11027
3.64128,12295
3.64388,11745
3.64650,11053
3.64910,13191
3.65170,11458
3.65432,11388
3.65692,9463
3.65953,11329
3.66213,10988
3.66473,11096
3.66735,8893
3.66995,10105
3.67257,11840
3.67517,10425
3.67777,10229
3.68038,8741
3.68298,10764
3.68560,10704
3.68820,10067
3.69082,7712
3.69342,8965
3.69602,9767
3.69863,11079
3.70123,10326
3.70385,8476
3.70645,11225
3.70905,7651
3.71167,9568
3.71427,10233
3.71688,8502
3.71948,8528
3.72208,10093
3.72470,9947
3.72730,8539
3.72992,10440
3.73252,8932
3.73512,9995
3.73773,9408
3.74033,9793
3.74295,9320
3.74555,9714
3.74815,9313
3.75077,9064
3.75337,8480
3.75598,9373
3.75858,9463
3.76118,8845
3.76380,9867
3.76640,9320
3.76902,9744
3.77162,9691
3.77423,8062
3.77683,8581
3.77943,8728
3.78205,9655
3.78465,8707
3.78727,10136
3.78987,9276
3.79247,9425
3.79508,9979
3.79768,8346
3.80030,8220
3.80290,7954
3.80550,9007
3.80812,7465
3.81072,9518
3.81333,8940
3.81593,10202
3.81853,9395
3.82115,9265
3.82375,9219
3.82637,8317
3.82897,8654
3.83157,9769
3.83418,8931
3.83678,8737
3.83940,9293
3.84200,7629
3.84460,8282
3.84722,8817
3.84982,9128
3.85243,9339
3.85503,8275
3.85765,8203
3.86025,9390
3.86285,7561
3.86547,9787
3.86807,9637
3.87068,8905
3.87328,8766
3.87588,9856
3.87850,8401
3.88110,8038
3.88372,9708
3.88632,7525
3.88892,9745
3.89153,8129
3.89413,8568
3.89675,10054
3.89935,8431
3.90195,8763
3.90457,7947
3.90717,8472
3.90978,9428
3.91238,8688
3.91498,8809
3.91760,9500
3.92020,8800
3.92282,10052
3.92542,10412
3.92802,12168
3.93063,10652
3.93323,13641
3.93585,14623
3.93845,17849
3.94107,16697
3.94367,13360
3.94627,11456
3.94888,12472
3.95148,10531
3.95410,11740
3.95670,9912
3.95930,11169
3.96192,9369
3.96452,8140
3.96713,8852
3.96973,8916
3.97233,9758
3.97495,8225
3.97755,10121
3.98017,9482
3.98277,10862
3.98537,10387
3.98798,8096
3.99058,8712
3.99320,9034
3.99580,8004
3.99840,9383
4.00102,8450
4.00362,7609
4.00623,10294
4.00883,8424
4.01143,10189
4.01405,8163
4.01665,9299
4.01927,8460
4.02187,9562
4.02448,8958
4.02708,7932
4.02968,8516
4.03230,10910
4.03490,9496
4.03752,7882
4.04012,10461
4.04272,9766
4.04533,10207
4.04793,9418
4.05055,8495
4.05315,9006
4.05575,8091
4.05837,8869
4.06097,9333
4.06358,7828
4.06618,9634
4.06878,8422
4.07140,10033
4.07400,9027
4.07662,10656
4.07922,7901
4.08182,8958
4.08443,9105
4.08703,8763
4.08965,9193
4.09225,9976
4.09485,8892
4.09747,7796
4.10007,8350
4.10268,8939
4.10528,7084
4.10790,9760
4.11050,8834
4.11310,9220
4.11572,10500
4.11832,8727
4.12093,7973
4.12353,8093
4.12613,7924
4.12875,9076
4.13135,8733
4.13397,8372
4.13657,9399
4.13917,9569
4.14178,7820
4.14438,8468
4.14700,9634
4.14960,7624
4.15220,9408
4.15482,7821
4.15742,9708
4.16003,8448
4.16263,9113
4.16523,8669
4.16785,9271
4.17045,8673
4.17307,7773
4.17567,7816
4.17827,7593
4.18088,10162
4.18348,8338
4.18610,9180
4.18870,8241
4.19132,7944
4.19392,9160
4.19652,7660
4.19913,9321
4.20173,8408
4.20435,8918
4.20695,8282
4.20955,8916
4.21217,8832
4.21477,9621
4.21738,7740
4.21998,8744
4.22258,8894
4.22520,8043
4.22780,9696
4.23042,7790
4.23302,9000
4.23562,7710
4.23823,8988
4.24083,9426
4.24345,6876
4.24605,7579
4.24865,9255
4.25127,7851
4.25387,8776
4.25648,9655
4.25908,8340
4.26168,6998
4.26430,9349
4.26690,7832
4.26952,7414
4.27212,9627
4.27473,9985
4.27733,8705
4.27993,9148
4.28255,8606
4.28515,8227
4.28777,8583
4.29037,7602
4.29297,9356
4.29558,9276
4.29818,8246
4.30080,8997
4.30340,8487
4.30600,8020
4.30862,9423
4.31122,7748
4.31383,9046
4.31643,8329
4.31903,7543
4.32165,9493
4.32425,9305
4.32687,7701
4.32947,10664
4.33207,8787
4.33468,9694
4.33728,9028
4.33990,8646
4.34250,7819
4.34510,7845
4.34772,6564
4.35032,9601
4.35293,8540
4.35553,10426
4.35815,8179
4.36075,8856
4.36335,8846
4.36597,9386
4.36857,9380
4.37118,11337
4.37378,8685
4.37638,8962
4.37900,8521
4.38160,8296
4.38422,9395
4.38682,7258
4.38942,9492
4.39203,7908
4.39463,7419
4.39725,8553
4.39985,9349
4.40245,7793
4.40507,7891
4.40767,9933
4.41028,9494
4.41288,9588
4.41548,10296
4.41810,9983
4.42070,9231
4.42332,8631
4.42592,9606
4.42852,10221
4.43113,8840
4.43373,8597
4.43635,9133
4.43895,7745
4.44157,8145
4.44417,9432
4.44677,8028
4.44938,8088
4.45198,9220
4.45460,9462
4.45720,8737
4.45980,8229
4.46242,7265
4.46502,8713
4.46763,8728
4.47023,8825
4.47283,7301
4.47545,9496
4.47805,8713
4.48067,9651
4.48327,8363
4.48587,8741
4.48848,7615
4.49108,8502
4.49370,10182
4.49630,9367
4.49890,10253
4.50152,8807
4.50412,8798
4.50673,7618
4.50933,7779
4.51193,8766
4.51455,8853
4.51715,8989
4.51977,9879
4.52237,9271
4.52498,8669
4.52758,8783
4.53018,8234
4.53280,9318
4.53540,9544
4.53802,7370
4.54062,7024
4.54322,9218
4.54583,8274
4.54843,10195
4.55105,10385
4.55365,8719
4.55625,9290
4.55887,8886
4.56147,8990
4.56408,8130
4.56668,8355
4.56928,8869
4.57190,7890
4.57450,8812
4.57712,8977
4.57972,8318
4.58232,9962
4.58493,8705
4.58753,8602
4.59015,8573
4.59275,8008
4.59535,8941
4.59797,7966
4.60057,9807
4.60318,8697
4.60578,8875
4.60840,9915
4.61100,8710
4.61360,9339
4.61622,8047
4.61882,8741
4.62143,8832
4.62403,8988
4.62663,9203
4.62925,8219
4.63185,9151
4.63447,8199
4.63707,9211
4.63967,7152
4.64228,8549
4.64488,7700
4.64750,10546
4.65010,7898
4.65270,8230
4.65532,9663
4.65792,9165
4.66053,8697
4.66313,8226
4.66573,8878
4.66835,8725
4.67095,7581
4.67357,7924
4.67617,8610
4.67877,8518
4.68138,8319
4.68398,9302
4.68660,8876
4.68920,8250
4.69182,8709
4.69442,9110
4.69702,8772
4.69963,8574
4.70223,7818
4.70485,8707
4.70745,10568
4.71005,10062
4.71267,9110
4.71527,9006
4.71788,8422
4.72048,9100
4.72308,8922
4.72570,8479
4.72830,9036
4.73092,8320
4.73352,9449
4.73612,8365
4.73873,8988
4.74133,9005
4.74395,7845
4.74655,10068
4.74915,9367
4.75177,8044
4.75437,8515
4.75698,9099
4.75958,8701
4.76218,8168
4.76480,8971
4.76740,8518
4.77002,7890
4.77262,9876
4.77523,8809
4.77783,12893
4.78043,27322
4.78305,94157
4.78565,278149
4.78827,696273
4.79087,1506502
4.79347,2621134
4.79608,4035265
4.79868,5085487
4.80130,5044040
4.80390,3471808
4.80650,1601656
4.80912,624912
4.81172,281879
4.81433,183165
4.81693,132803
4.81953,110806
4.82215,93083
4.82475,79757
4.82737,72212
4.82997,68955
4.83257,61419
4.83518,54965
4.83778,50275
4.84040,47270
4.84300,47616
4.84560,44266
4.84822,40995
4.85082,38531
4.85343,33474
4.85603,34048
4.85865,32684
4.86125,34078
4.86385,32487
4.86647,31476
4.86907,30204
4.87168,28250
4.87428,25492
4.87688,25191
4.87950,26131
4.88210,22700
4.88472,21182
4.88732,22324
4.88992,22272
4.89253,24693
4.89513,20010
4.89775,20088
4.90035,22608
4.90295,21478
4.90557,21754
4.90817,19842
4.91078,18596
4.91338,19549
4.91598,17886
4.91860,15859
4.92120,20005
4.92382,17672
4.92642,17182
4.92902,17833
4.93163,16111
4.93423,17894
4.93685,17282
4.93945,19306
4.94207,17336
4.94467,14851
4.94727,16757
4.94988,15595
4.95248,15694
4.95510,14626
4.95770,16317
4.96030,14028
4.96292,14099
4.96552,14843
4.96813,16421
4.97073,15144
4.97333,15244
4.97595,12983
4.97855,14882
4.98117,14792
4.98377,14029
4.98637,14362
4.98898,16296
4.99158,13285
4.99420,15042
4.99680,13902
4.99940,13852
5.00202,15275
5.00462,13622
5.00723,13492
5.00983,13402
5.01243,14751
5.01505,13060
5.01765,14994
5.02027,12242
5.02287,11826
5.02548,15232
5.02808,15053
5.03068,14328
5.03330,13285
5.03590,12987
5.03852,13373
5.04112,13205
5.04372,11762
5.04633,11217
5.04893,11303
5.05155,13919
5.05415,11961
5.05675,11887
5.05937,12389
5.06197,14199
5.06458,11599
5.06718,12153
5.06978,12395
5.07240,14305
5.07500,11837
5.07762,11388
5.08022,13234
5.08282,13470
5.08543,11977
5.08803,11439
5.09065,11356
5.09325,12562
5.09585,13609
5.09847,11465
5.10107,11469
5.10368,12857
5.10628,14289
5.10890,12947
5.11150,12247
5.11410,11441
5.11672,12639
5.11932,12761
5.12193,13361
5.12453,12504
5.12713,13212
5.12975,12910
5.13235,10778
5.13497,12286
5.13757,13520
5.14017,10660
5.14278,11018
5.14538,11392
5.14800,12897
5.15060,11570
5.15320,10435
5.15582,11924
5.15842,13042
5.16103,11771
5.16363,9354
5.16623,12870
5.16885,12238
5.17145,11118
5.17407,9648
5.17667,11276
5.17927,13123
5.18188,11696
5.18448,9906
5.18710,11177
5.18970,11174
5.19232,10126
5.19492,10913
5.19752,10516
5.20013,12677
5.20273,13313
5.20535,12479
5.20795,11523
5.21055,11023
5.21317,11794
5.21577,11738
5.21838,12115
5.22098,10455
5.22358,11810
5.22620,11219
5.22880,11457
5.23142,11429
5.23402,12063
5.23662,12011
5.23923,11926
5.24183,11287
5.24445,11096
5.24705,10356
5.24965,10277
5.25227,11184
5.25487,8797
5.25748,11485
5.26008,10821
5.26268,10517
5.26530,9322
5.26790,10354
5.27052,9953
5.27312,12353
5.27573,11006
5.27833,10900
5.28093,9461
5.28355,11923
5.28615,10939
5.28877,10088
5.29137,10874
5.29397,11689
5.29658,11142
5.29918,9887
5.30180,9824
5.30440,9028
5.30700,11021
5.30962,12367
5.31222,11780
5.31483,10292
5.31743,11270
5.32003,13078
5.32265,10874
5.32525,10352
5.32787,12344
5.33047,12209
5.33307,12576
5.33568,11714
5.33828,10596
5.34090,12364
5.34350,9616
5.34610,10776
5.34872,10604
5.35132,10306
5.35393,9915
5.35653,10255
5.35915,11441
5.36175,10646
5.36435,11851
5.36697,10307
5.36957,10417
5.37218,11522
5.37478,11527
5.37738,10959
5.38000,11225
5.38260,10575
5.38522,10890
5.38782,9935
5.39042,10910
5.39303,11218
5.39563,9264
5.39825,10498
5.40085,10537
5.40345,10012
5.40607,10861
5.40867,8867
5.41128,9367
5.41388,10971
5.41648,11698
5.41910,10577
5.42170,10507
5.42432,9257
5.42692,9855
5.42952,10657
5.43213,9111
5.43473,10621
5.43735,9301
5.43995,10854
5.44257,10299
5.44517,10709
5.44777,12035
5.45038,13595
5.45298,14301
5.45560,16587
5.45820,14060
5.46080,16266
5.46342,14671
5.46602,14258
5.46863,13397
5.47123,11952
5.47383,11593
5.47645,12107
5.47905,10385
5.48167,11356
5.48427,8939
5.48687,11665
5.48948,11739
5.49208,11135
5.49470,11158
5.49730,10545
5.49990,11262
5.50252,9287
5.50512,10339
5.50773,11701
5.51033,10294
5.51293,11483
5.51555,9598
5.51815,9675
5.52077,10537
5.52337,9626
5.52598,10390
5.52858,9422
5.53118,8958
5.53380,11141
5.53640,11477
5.53902,8389
5.54162,9888
5.54422,10436
5.54683,10430
5.54943,10427
5.55205,9337
5.55465,11059
5.55725,9082
5.55987,12038
5.56247,11665
5.56508,10461
5.56768,10713
5.57028,10354
5.57290,11729
5.57550,10914
5.57812,9093
5.58072,11565
5.58332,9820
5.58593,11151
5.58853,9929
5.59115,11672
5.59375,10580
5.59635,10134
5.59897,10332
5.60157,10847
5.60418,10831
5.60678,9468
5.60940,8199
5.61200,9937
5.61460,8961
5.61722,10426
5.61982,10591
5.62243,10746
5.62503,9992
5.62763,10818
5.63025,10520
5.63285,10569
5.63547,10073
5.63807,10831
5.64067,10749
5.64328,10013
5.64588,10001
5.64850,9607
5.65110,12240
5.65370,11359
5.65632,11647
5.65892,9633
5.66153,11489
5.66413,10763
5.66673,11471
5.66935,10255
5.67195,8904
5.67457,10203
5.67717,10369
5.67977,9430
5.68238,10678
5.68498,9425
5.68760,10329
5.69020,8501
5.69282,10277
5.69542,9806
5.69802,10438
5.70063,11087
5.70323,12891
5.70585,12548
5.70845,13058
5.71105,10916
5.71367,11952
5.71627,11031
5.71888,11446
5.72148,10908
5.72408,9902
5.72670,11483
5.72930,9958
5.73192,9859
5.73452,9478
5.73712,11251
5.73973,9829
5.74233,10617
5.74495,9463
5.74755,8526
5.75015,8659
5.75277,9375
5.75537,11024
5.75798,9172
5.76058,9339
5.76318,10167
5.76580,9663
5.76840,10804
5.77102,10052
5.77362,9734
5.77623,10053
5.77883,8316
5.78143,9732
5.78405,10349
5.78665,9255
5.78927,10766
5.79187,10237
5.79447,11290
5.79708,10908
5.79968,10529
5.80230,11047
5.80490,10058
5.80750,11792
5.81012,12079
5.81272,13265
5.81533,18724
5.81793,23641
5.82053,31403
5.82315,31060
5.82575,28229
5.82837,21559
5.83097,17119
5.83357,14229
5.83618,14928
5.83878,13582
5.84140,13532
5.84400,16160
5.84660,17617
5.84922,15961
5.85182,13981
5.85443,12375
5.85703,11539
5.85965,10451
5.86225,11831
5.86485,11304
5.86747,9959
5.87007,11533
5.87268,11305
5.87528,12020
5.87788,9776
5.88050,8749
5.88310,11414
5.88572,11060
5.88832,10159
5.89092,12609
5.89353,9901
5.89613,10216
5.89875,10368
5.90135,11693
5.90395,9203
5.90657,11454
5.90917,11587
5.91178,12604
5.91438,10445
5.91698,12081
5.91960,10440
5.92220,10612
5.92482,12843
5.92742,12230
5.93003,13714
5.93263,15567
5.93523,14977
5.93785,15806
5.94045,16967
5.94307,15078
5.94567,15814
5.94827,16248
5.95088,14337
5.95348,13826
5.95610,13342
5.95870,14008
5.96130,13603
5.96392,14324
5.96652,12197
5.96913,11785
5.97173,12563
5.97433,11316
5.97695,11696
5.97955,11594
5.98217,11683
5.98477,13877
5.98737,12870
5.98998,13575
5.99258,11629
5.99520,14064
5.99780,11673
6.00040,11032
6.00302,11996
6.00562,12733
6.00823,11613
6.01083,12142
6.01345,11710
6.01605,12264
6.01865,12748
6.02127,12861
6.02387,12335
6.02648,11640
6.02908,11810
6.03168,14496
6.03430,12285
6.03690,11947
6.03952,11568
6.04212,12665
6.04472,16097
6.04733,20523
6.04993,23999
6.05255,26231
6.05515,24391
6.05775,23145
6.06037,19863
6.06297,18920
6.06558,17681
6.06818,17513
6.07078,16749
6.07340,15976
6.07600,17097
6.07862,16280
6.08122,15265
6.08382,14146
6.08643,14127
6.08903,13086
6.09165,11487
6.09425,12228
6.09687,13576
6.09947,12390
6.10207,13147
6.10468,13507
6.10728,14249
6.10990,14266
6.11250,13441
6.11510,14643
6.11772,13558
6.12032,14229
6.12293,15440
6.12553,14443
6.12813,14646
6.13075,13259
6.13335,16072
6.13597,16351
6.13857,14291
6.14117,13547
6.14378,13662
6.14638,12469
6.14900,11807
6.15160,12290
6.15420,13775
6.15682,13804
6.15942,13429
6.16203,11926
6.16463,11524
6.16723,12921
6.16985,14907
6.17245,12850
6.17507,12997
6.17767,13373
6.18028,12100
6.18288,14577
6.18548,12030
6.18810,13115
6.19070,12906
6.19332,12452
6.19592,12774
6.19852,11148
6.20113,11802
6.20373,12107
6.20635,13717
6.20895,10405
6.21155,13400
6.21417,11993
6.21677,10369
6.21938,11072
6.22198,11713
6.22458,11038
6.22720,10558
6.22980,10538
6.23242,12140
6.23502,12041
6.23762,11755
6.24023,11563
6.24283,11811
6.24545,10318
6.24805,10626
6.25065,11264
6.25327,11397
6.25587,12153
6.25848,12785
6.26108,12042
6.26370,11765
6.26630,11940
6.26890,11908
6.27152,9685
6.27412,12201
6.27673,11826
6.27933,10204
6.28193,11474
6.28455,11604
6.28715,12555
6.28977,10671
6.29237,11575
6.29497,12145
6.29758,10664
6.30018,12022
6.30280,11044
6.30540,13157
6.30800,12705
6.31062,12900
6.31322,10551
6.31583,11651
6.31843,12110
6.32103,12166
6.32365,10235
6.32625,12489
6.32887,12914
6.33147,11934
6.33407,9903
6.33668,12402
6.33928,12089
6.34190,12193
6.34450,11056
6.34712,12804
6.34972,12799
6.35232,13299
6.35493,13027
6.35753,12355
6.36015,10890
6.36275,10896
6.36535,11547
6.36797,11807
6.37057,11549
6.37318,11280
6.37578,11611
6.37838,11952
6.38100,12510
6.38360,12401
6.38622,12372
6.38882,12086
6.39142,12427
6.39403,11098
6.39663,12394
6.39925,10588
6.40185,11951
6.40445,13524
6.40707,12580
6.40967,16394
6.41228,13977
6.41488,12959
6.41748,11910
6.42010,12544
6.42270,11192
6.42532,11634
6.42792,11672
6.43053,14225
6.43313,10964
6.43573,12482
6.43835,10464
6.44095,13918
6.44357,12166
6.44617,12123
6.44877,13394
6.45138,11575
6.45398,13756
6.45660,10688
6.45920,12393
6.46180,10073
6.46442,13212
6.46702,12153
6.46963,12278
6.47223,12698
6.47483,12042
6.47745,13547
6.48005,13695
6.48267,13789
6.48527,12555
6.48787,13487
6.49048,17847
6.49308,31387
6.49570,61443
6.49830,138749
6.50090,266157
6.50352,428892
6.50612,519786
6.50873,471841
6.51133,357974
6.51395,202610
6.51655,113542
6.51915,74360
6.52177,53064
6.52437,46097
6.52698,35980
6.52958,33649
6.53218,30341
6.53480,26960
6.53740,27887
6.54002,26059
6.54262,22954
6.54522,23734
6.54783,22933
6.55043,22672
6.55305,21257
6.55565,20649
6.55825,21562
6.56087,17767
6.56347,19469
6.56608,20176
6.56868,20384
6.57128,19151
6.57390,19258
6.57650,17201
6.57912,16276
6.58172,18119
6.58432,18737
6.58693,27457
6.58953,67889
6.59215,252330
6.59475,971378
6.59737,3001912
6.59997,6566383
6.60257,1.142213E+07
6.60518,1.660452E+07
6.60778,2.199566E+07
6.61040,2.737738E+07
6.61300,3.157448E+07
6.61560,3.418285E+07
6.61822,3.061852E+07
6.62082,1.745794E+07
6.62343,4944249
6.62603,1149624
6.62863,391839
6.63125,229925
6.63385,169221
6.63647,136618
6.63907,112513
6.64167,101042
6.64428,89416
6.64688,83450
6.64950,71134
6.65210,69319
6.65470,59854
6.65732,56867
6.65992,53973
6.66253,54120
6.66513,50560
6.66773,47039
6.67035,44571
6.67295,40910
6.67557,40700
6.67817,39325
6.68078,38380
6.68338,38719
6.68598,36792
6.68860,36233
6.69120,34106
6.69382,31993
6.69642,34047
6.69902,32265
6.70163,30861
6.70423,33676
6.70685,26969
6.70945,27936
6.71205,31182
6.71467,28757
6.71727,30076
6.71988,28464
6.72248,27669
6.72508,25791
6.72770,26290
6.73030,26611
6.73292,25958
6.73552,25852
6.73812,26914
6.74073,26165
6.74333,26112
6.74595,27037
6.74855,24347
6.75115,24632
6.75377,25000
6.75637,23052
6.75898,25095
6.76158,24942
6.76420,26499
6.76680,28417
6.76940,30115
6.77202,32311
6.77462,28986
6.77723,24863
6.77983,25129
6.78243,24497
6.78505,20130
6.78765,21636
6.79027,19937
6.79287,22084
6.79547,19898
6.79808,20183
6.80068,23022
6.80330,19906
6.80590,23418
6.80850,19171
6.81112,23224
6.81372,19771
6.81633,18550
6.81893,19555
6.82153,19601
6.82415,18636
6.82675,18589
6.82937,19326
6.83197,18799
6.83457,19413
6.83718,17717
6.83978,19085
6.84240,19755
6.84500,20528
6.84762,18776
6.85022,19809
6.85282,16456
6.85543,18631
6.85803,21501
6.86065,26746
6.86325,31280
6.86585,36091
6.86847,39905
6.87107,43862
6.87368,46916
6.87628,53019
6.87888,67776
6.88150,75211
6.88410,71540
6.88672,64243
6.88932,46390
6.89192,33753
6.89453,30129
6.89713,27253
6.89975,24833
6.90235,23756
6.90495,22903
6.90757,23526
6.91017,22271
6.91278,24756
6.91538,21559
6.91798,20325
6.92060,22921
6.92320,20987
6.92582,19945
6.92842,23449
6.93103,25060
6.93363,30854
6.93623,31754
6.93885,32447
6.94145,29618
6.94407,28442
6.94667,24422
6.94927,22300
6.95188,21914
6.95448,20572
6.95710,20241
6.95970,19322
6.96230,21754
6.96492,21605
6.96752,20595
6.97013,20128
6.97273,20355
6.97533,18657
6.97795,18665
6.98055,17982
6.98317,15868
6.98577,19414
6.98837,17549
6.99098,19836
6.99358,17863
6.99620,18482
6.99880,18990
7.00140,18117
7.00402,18566
7.00662,17739
7.00923,18206
7.01183,17302
7.01445,17920
7.01705,17816
7.01965,21011
7.02227,18742
7.02487,17442
7.02748,17738
7.03008,17854
7.03268,18999
7.03530,21064
7.03790,18808
7.04052,18244
7.04312,19079
7.04572,18467
7.04833,19323
7.05093,20835
7.05355,17484
7.05615,21208
7.05875,19577
7.06137,19004
7.06397,18026
7.06658,16199
7.06918,20300
7.07178,18934
7.07440,16360
7.07700,18319
7.07962,19232
7.08222,19672
7.08482,17180
7.08743,17220
7.09003,18692
7.09265,18072
7.09525,17824
7.09787,17246
7.10047,17570
7.10307,18143
7.10568,17996
7.10828,18891
7.11090,18901
7.11350,17336
7.11610,18236
7.11872,17202
7.12132,17482
7.12393,18048
7.12653,16730
7.12913,18625
7.13175,18113
7.13435,16403
7.13697,15522
7.13957,18378
7.14217,16303
7.14478,18946
7.14738,17635
7.15000,19565
7.15260,19687
7.15520,20502
7.15782,18315
7.16042,17975
7.16303,20269
7.16563,18234
7.16823,17023
7.17085,17021
7.17345,17471
7.17607,16205
7.17867,18503
7.18128,16677
7.18388,17535
7.18648,16444
7.18910,17487
7.19170,18880
7.19432,18179
7.19692,17399
7.19952,15681
7.20213,17629
7.20473,20188
7.20735,17949
7.20995,21126
7.21255,22003
7.21517,22770
7.21777,23673
7.22038,20823
7.22298,19849
7.22558,20509
7.22820,18712
7.23080,19015
7.23342,18990
7.23602,18910
7.23862,19897
7.24123,21134
7.24383,19597
7.24645,19992
7.24905,18422
7.25165,17726
7.25427,18040
7.25687,18301
7.25948,17410
7.26208,17329
7.26470,16763
7.26730,18219
7.26990,17823
7.27252,19186
7.27512,19354
7.27773,19863
7.28033,17629
7.28293,17994
7.28555,16676
7.28815,19458
7.29077,18243
7.29337,19309
7.29597,20300
7.29858,18861
7.30118,18327
7.30380,18443
7.30640,19605
7.30900,16095
7.31162,18714
7.31422,20045
7.31683,19701
7.31943,20236
7.32203,18854
7.32465,19442
7.32725,17785
7.32987,17100
7.33247,18545
7.33507,18793
7.33768,18748
7.34028,19567
7.34290,18674
7.34550,18056
7.34812,18210
7.35072,18182
7.35332,18245
7.35593,16370
7.35853,18626
7.36115,16739
7.36375,18193
7.36635,18129
7.36897,17147
7.37157,19461
7.37418,17915
7.37678,18255
7.37938,19102
7.38200,16650
7.38460,16922
7.38722,19487
7.38982,17274
7.39242,16413
7.39503,17984
7.39763,19777
7.40025,20272
7.40285,17997
7.40545,20391
7.40807,19116
7.41067,19352
7.41328,19613
7.41588,15291
7.41848,19380
7.42110,18021
7.42370,18756
7.42632,18021
7.42892,18191
7.43153,17891
7.43413,19567
7.43673,18300
7.43935,19088
7.44195,17489
7.44457,20383
7.44717,20351
7.44977,18118
7.45238,18518
7.45498,19937
7.45760,19032
7.46020,19065
7.46280,18144
7.46542,19206
7.46802,19224
7.47063,19420
7.47323,18972
7.47583,16994
7.47845,18193
7.48105,20550
7.48367,21810
7.48627,20067
7.48887,21507
7.49148,19694
7.49408,23757
7.49670,20130
7.49930,20417
7.50190,20670
7.50452,23765
7.50712,20303
7.50973,21906
7.51233,19163
7.51495,18980
7.51755,20766
7.52015,25412
7.52277,28360
7.52537,27605
7.52798,30945
7.53058,30871
7.53318,30010
7.53580,25808
7.53840,21420
7.54102,20214
7.54362,23394
7.54622,21260
7.54883,18447
7.55143,19735
7.55405,19446
7.55665,22138
7.55925,21679
7.56187,20007
7.56447,20530
7.56708,21655
7.56968,22439
7.57228,22994
7.57490,22856
7.57750,22800
7.58012,23431
7.58272,24138
7.58532,24065
7.58793,23529
7.59053,24633
7.59315,22686
7.59575,19604
7.59837,21580
7.60097,21454
7.60357,21965
7.60618,19256
7.60878,21174
7.61140,19221
7.61400,20264
7.61660,21594
7.61922,21196
7.62182,22644
7.62443,19988
7.62703,22380
7.62963,22430
7.63225,21757
7.63485,21987
7.63747,22258
7.64007,22284
7.64267,19474
7.64528,21935
7.64788,21366
7.65050,23157
7.65310,21641
7.65570,20470
7.65832,19716
7.66092,20550
7.66353,23626
7.66613,20309
7.66873,25610
7.67135,23245
7.67395,24428
7.67657,23029
7.67917,28225
7.68178,25482
7.68438,25808
7.68698,26276
7.68960,23716
7.69220,21581
7.69482,23011
7.69742,24395
7.70002,22431
7.70263,24480
7.70523,21652
7.70785,22281
7.71045,21211
7.71305,21709
7.71567,21531
7.71827,22823
7.72088,21642
7.72348,22931
7.72608,23861
7.72870,24218
7.73130,21330
7.73392,22348
7.73652,22900
7.73912,21784
7.74173,21177
7.74433,22741
7.74695,22989
7.74955,20394
7.75215,23365
7.75477,22266
7.75737,24651
7.75998,22339
7.76258,21784
7.76520,23111
7.76780,25633
7.77040,24625
7.77302,24851
7.77562,23425
7.77823,24752
7.78083,22625
7.78343,21338
7.78605,25086
7.78865,22535
7.79127,22438
7.79387,23815
7.79647,26033
7.79908,23052
7.80168,22671
7.80430,22945
7.80690,23638
7.80950,23737
7.81212,22916
7.81472,23110
7.81733,23258
7.81993,23933
7.82253,25887
7.82515,28104
7.82775,30024
7.83037,30252
7.83297,29124
7.83557,29509
7.83818,26309
7.84078,26320
7.84340,25070
7.84600,24287
7.84862,25066
7.85122,23481
7.85382,24899
7.85643,23625
7.85903,25600
7.86165,26019
7.86425,24851
7.86685,26577
7.86947,26188
7.87207,22991
7.87468,25139
7.87728,24490
7.87988,27907
7.88250,26064
7.88510,25628
7.88772,23171
7.89032,25652
7.89292,23978
7.89553,23411
7.89813,26714
7.90075,27107
7.90335,26611
7.90595,28098
7.90857,27912
7.91117,28555
7.91378,28324
7.91638,25999
7.91898,27340
7.92160,26976
7.92420,27732
7.92682,25046
7.92942,25814
7.93203,25186
7.93463,23914
7.93723,26527
7.93985,23974
7.94245,24829
7.94507,26507
7.94767,26186
7.95027,24860
7.95288,24978
7.95548,24675
7.95810,23281
7.96070,25846
7.96330,27333
7.96592,25743
7.96852,27733
7.97113,26550
7.97373,27820
7.97633,28723
7.97895,27733
7.98155,26017
7.98417,25512
7.98677,27135
7.98937,26273
7.99198,28819
7.99458,26389
7.99720,28452
7.99980,26780
8.00240,26319
8.00502,27233
8.00762,29017
8.01023,28819
8.01283,24951
8.01545,28193
8.01805,29326
8.02065,26809
8.02327,27292
8.02587,28367
8.02848,26625
8.03108,28283
8.03368,29169
8.03630,26726
8.03890,26493
8.04152,28715
8.04412,28344
8.04672,31049
8.04933,28233
8.05193,29830
8.05455,34037
8.05715,51661
8.05975,142322
8.06237,515267
8.06497,1744009
8.06758,4643006
8.07018,8936910
8.07278,1.346528E+07
8.07540,1.699246E+07
8.07800,1.77697E+07
8.08062,1.466881E+07
8.08322,8983943
8.08582,4481451
8.08843,2251731
8.09103,1329194
8.09365,909110
8.09625,706468
8.09887,559346
8.10147,453532
8.10407,379957
8.10668,328398
8.10928,284160
8.11190,244808
8.11450,219976
8.11710,199283
8.11972,178334
8.12232,168613
8.12493,146943
8.12753,144815
8.13013,130290
8.13275,126893
8.13535,119421
8.13797,106889
8.14057,104652
8.14317,99012
8.14578,96684
8.14838,91112
8.15100,85499
8.15360,84512
8.15620,81142
8.15882,76326
8.16142,72184
8.16403,68787
8.16663,67297
8.16923,63931
8.17185,68101
8.17445,67496
8.17707,74236
8.17967,74780
8.18228,69611
8.18488,72501
8.18748,69664
8.19010,65770
8.19270,60636
8.19532,55265
8.19792,53547
8.20052,56454
8.20313,52879
8.20573,54262
8.20835,52963
8.21095,54140
8.21355,51273
8.21617,51849
8.21877,51051
8.22138,46439
8.22398,48378
8.22658,50576
8.22920,49829
8.23180,47353
8.23442,48924
8.23702,47734
8.23962,48130
8.24223,44569
8.24483,44389
8.24745,44635
8.25005,42520
8.25265,44893
8.25527,45399
8.25787,43651
8.26048,43122
8.26308,43660
8.26570,42154
8.26830,39239
8.27090,40649
8.27352,43390
8.27612,41298
8.27873,43690
8.28133,43468
8.28393,41419
8.28655,46668
8.28915,43551
8.29177,42995
8.29437,39287
8.29697,42460
8.29958,43374
8.30218,47564
8.30480,46054
8.30740,46514
8.31000,42569
8.31262,44351
8.31522,43475
8.31783,45623
8.32043,44881
8.32303,41525
8.32565,41152
8.32825,44453
8.33087,45283
8.33347,42846
8.33607,43128
8.33868,45004
8.34128,43223
8.34390,43139
8.34650,42800
8.34912,40935
8.35172,41661
8.35432,43656
8.35693,44202
8.35953,44499
8.36215,43751
8.36475,44932
8.36735,42650
8.36997,42912
8.37257,44907
8.37518,48149
8.37778,39406
8.38038,41047
8.38300,44137
8.38560,45238
8.38822,45424
8.39082,45187
8.39342,43910
8.39603,44927
8.39863,45293
8.40125,43544
8.40385,46143
8.40645,44998
8.40907,45172
8.41167,45050
8.41428,44554
8.41688,47688
8.41948,48369
8.42210,47015
8.42470,46710
8.42732,46533
8.42992,47981
8.43253,46576
8.43513,45653
8.43773,46422
8.44035,47630
8.44295,47782
8.44557,46709
8.44817,46472
8.45077,47703
8.45338,48310
8.45598,46996
8.45860,47219
8.46120,48338
8.46380,50369
8.46642,51073
8.46902,51584
8.47163,48464
8.47423,50671
8.47683,52890
8.47945,56723
8.48205,54411
8.48467,52244
8.48727,50388
8.48987,52866
8.49248,49481
8.49508,51133
8.49770,52818
8.50030,51970
8.50290,56714
8.50552,55477
8.50812,60108
8.51073,66185
8.51333,66001
8.51595,65489
8.51855,63589
8.52115,56940
8.52377,54502
8.52637,54557
8.52898,55233
8.53158,53988
8.53418,55762
8.53680,56804
8.53940,56557
8.54202,58236
8.54462,57849
8.54722,56584
8.54983,54369
8.55243,53837
8.55505,55256
8.55765,56019
8.56025,58574
8.56287,60085
8.56547,54608
8.56808,55688
8.57068,55760
8.57328,59696
8.57590,57493
8.57850,58121
8.58112,59586
8.58372,61715
8.58632,62158
8.58893,60350
8.59153,57667
8.59415,61358
8.59675,59443
8.59937,61777
8.60197,61987
8.60457,63815
8.60718,61262
8.60978,62082
8.61240,58786
8.61500,59754
8.61760,62937
8.62022,62756
8.62282,62377
8.62543,64669
8.62803,64011
8.63063,63796
8.63325,62059
8.63585,64571
8.63847,63169
8.64107,65799
8.64367,66491
8.64628,62943
8.64888,63223
8.65150,62933
8.65410,65326
8.65670,71728
8.65932,70174
8.66192,64178
8.66453,67565
8.66713,68061
8.66975,66268
8.67235,71375
8.67495,69337
8.67757,71010
8.68017,71859
8.68278,75985
8.68538,76645
8.68798,73780
8.69060,74647
8.69320,74978
8.69582,76865
8.69842,75905
8.70102,76743
8.70363,78913
8.70623,80839
8.70885,81964
8.71145,84826
8.71405,84482
8.71667,87534
8.71927,87732
8.72188,88996
8.72448,85273
8.72708,84608
8.72970,86101
8.73230,84764
8.73492,85572
8.73752,82248
8.74012,84828
8.74273,83575
8.74533,82426
8.74795,80382
8.75055,81772
8.75317,83904
8.75577,84851
8.75837,82263
8.76098,85858
8.76358,83998
8.76620,82860
8.76880,84739
8.77140,82098
8.77402,83074
8.77662,86343
8.77923,80305
8.78183,85015
8.78443,83528
8.78705,83564
8.78965,86716
8.79227,84289
8.79487,87547
8.79747,87809
8.80008,85461
8.80268,86442
8.80530,89452
8.80790,86934
8.81050,85749
8.81312,87748
8.81572,84183
8.81833,85613
8.82093,86109
8.82353,85542
8.82615,86449
8.82875,85762
8.83137,87545
8.83397,89402
8.83658,86334
8.83918,89592
8.84178,90435
8.84440,90837
8.84700,89764
8.84962,89245
8.85222,88609
8.85482,91862
8.85743,91611
8.86003,89738
8.86265,91743
8.86525,91783
8.86785,90804
8.87047,92622
8.87307,91765
8.87568,87980
8.87828,90264
8.88088,98683
8.88350,95327
8.88610,91822
8.88872,90266
8.89132,92063
8.89392,94482
8.89653,96321
8.89913,93519
8.90175,95818
8.90435,92634
8.90695,95426
8.90957,95898
8.91217,96920
8.91478,93656
8.91738,94334
8.92000,96158
8.92260,97388
8.92520,97231
8.92782,95642
8.93042,98270
8.93303,102174
8.93563,97428
8.93823,99658
8.94085,100467
8.94345,96949
8.94607,98980
8.94867,96518
8.95127,98820
8.95388,97161
8.95648,98543
8.95910,99907
8.96170,96159
8.96430,98592
8.96692,99472
8.96952,100647
8.97213,100664
8.97473,100113
8.97733,101462
8.97995,98551
8.98255,99792
8.98517,102024
8.98777,97747
8.99037,100452
8.99298,99033
8.99558,102433
8.99820,103334
9.00080,103220
9.00342,99727
9.00602,103661
9.00862,103943
9.01123,98400
9.01383,100605
9.01645,103665
9.01905,100586
9.02165,103248
9.02427,101306
9.02687,102950
9.02948,99598
9.03208,104479
9.03468,103595
9.03730,101326
9.03990,102759
9.04252,102584
9.04512,101648
9.04772,101989
9.05033,104184
9.05293,101944
9.05555,106313
9.05815,103545
9.06075,106614
9.06337,105770
9.06597,103483
9.06858,106524
9.07118,101185
9.07378,101999
9.07640,104197
9.07900,107533
9.08162,103183
9.08422,99192
9.08683,104085
9.08943,103048
9.09203,105329
9.09465,103790
9.09725,105249
9.09987,102205
9.10247,102502
9.10507,104472
9.10768,105171
9.11028,106422
9.11290,103202
9.11550,105844
9.11810,104716
9.12072,107212
9.12332,113750
9.12593,111225
9.12853,109419
9.13113,103031
9.13375,104156
9.13635,105948
9.13897,102766
9.14157,106587
9.14417,105179
9.14678,103609
9.14938,106137
9.15200,105003
9.15460,106810
9.15720,106935
9.15982,104393
9.16242,104409
9.16503,107773
9.16763,104419
9.17025,106574
9.17285,102776
9.17545,101343
9.17807,105929
9.18067,105988
9.18328,99332
9.18588,109111
9.18848,107319
9.19110,107247
9.19370,107882
9.19632,109570
9.19892,109552
9.20152,110114
9.20413,106386
9.20673,110860
9.20935,107540
9.21195,103750
9.21455,109889
9.21717,108173
9.21977,107325
9.22238,102773
9.22498,102443
9.22758,103897
9.23020,105348
9.23280,101359
9.23542,102591
9.23802,109213
9.24062,102883
9.24323,101769
9.24583,105004
9.24845,106788
9.25105,103729
9.25367,107703
9.25627,104686
9.25887,107940
9.26148,102540
9.26408,104264
9.26670,106999
9.26930,107032
9.27190,103300
9.27452,105102
9.27712,107170
9.27973,110652
9.28233,108592
9.28493,101558
9.28755,101327
9.29015,102426
9.29277,108790
9.29537,106454
9.29797,102919
9.30058,108138
9.30318,105509
9.30580,108294
9.30840,103690
9.31100,103569
9.31362,103199
9.31622,102609
9.31883,102584
9.32143,107439
9.32403,102960
9.32665,106694
9.32925,107756
9.33187,105070
9.33447,104339
9.33708,110781
9.33968,106902
9.34228,104660
9.34490,105832
9.34750,104544
9.35012,106341
9.35272,105029
9.35532,102786
9.35793,101358
9.36053,105700
9.36315,106395
9.36575,109982
9.36835,102639
9.37097,108750
9.37357,107284
9.37618,105697
9.37878,105325
9.38138,104328
9.38400,107547
9.38660,107625
9.38922,102803
9.39182,111176
9.39442,107558
9.39703,107666
9.39963,103681
9.40225,107362
9.40485,102704
9.40745,102936
9.41007,108594
9.41267,105354
9.41528,104077
9.41788,109937
9.42050,102719
9.42310,105709
9.42570,106126
9.42832,107833
9.43092,108747
9.43353,109570
9.43613,104653
9.43873,107154
9.44135,103833
9.44395,104410
9.44657,105687
9.44917,106519
9.45177,108113
9.45438,112657
9.45698,105192
9.45960,107756
9.46220,109685
9.46480,105213
9.46742,109341
9.47002,104132
9.47263,109749
9.47523,104197
9.47783,109105
9.48045,106627
9.48305,106794
9.48567,106406
9.48827,104183
9.49087,106630
9.49348,105215
9.49608,103802
9.49870,106066
9.50130,104292
9.50392,106822
9.50652,105619
9.50912,103696
9.51173,107379
9.51433,104465
9.51695,104362
9.51955,107491
9.52215,108138
9.52477,103649
9.52737,107551
9.52998,103477
9.53258,103183
9.53518,101717
9.53780,104737
9.54040,108152
9.54302,104581
9.54562,109690
9.54822,107491
9.55083,106295
9.55343,105223
9.55605,102027
9.55865,107042
9.56125,104507
9.56387,107528
9.56647,107974
9.56908,105732
9.57168,103309
9.57428,105836
9.57690,102570
9.57950,102769
9.58212,105427
9.58472,103539
9.58733,108282
9.58993,101912
9.59253,107354
9.59515,105577
9.59775,106390
9.60037,106260
9.60297,102162
9.60557,101176
9.60818,102350
9.61078,110820
9.61340,105490
9.61600,103085
9.61860,109671
9.62122,111052
9.62382,104358
9.62643,102915
9.62903,103620
9.63163,106633
9.63425,106060
9.63685,104488
9.63947,109361
9.64207,106595
9.64467,104913
9.64728,106010
9.64988,110123
9.65250,103586
9.65510,103819
9.65770,106568
9.66032,107845
9.66292,104384
9.66553,102658
9.66813,104690
9.67075,105568
9.67335,103640
9.67595,103097
9.67857,105689
9.68117,102495
9.68378,105432
9.68638,104392
9.68898,100415
9.69160,104277
9.69420,102892
9.69682,103581
9.69942,104321
9.70202,104050
9.70463,104329
9.70723,103838
9.70985,103067
9.71245,106278
9.71505,108614
9.71767,104098
9.72027,108326
9.72288,105723
9.72548,107673
9.72808,103708
9.73070,105173
9.73330,103582
9.73592,104807
9.73852,105896
9.74112,107961
9.74373,108608
9.74633,105283
9.74895,108088
9.75155,103782
9.75417,105653
9.75677,107893
9.75937,106349
9.76198,105532
9.76458,107902
9.76720,103402
9.76980,104741
9.77240,104290
9.77502,105442
9.77762,106715
9.78023,103824
9.78283,108889
9.78543,109698
9.78805,111100
9.79065,102389
9.79327,104971
9.79587,108873
9.79847,109638
9.80108,107245
9.80368,106529
9.80630,108689
9.80890,104242
9.81150,105153
9.81412,102062
9.81672,102560
9.81933,104695
9.82193,110801
9.82453,105569
9.82715,105063
9.82975,104778
9.83237,105582
9.83497,110751
9.83758,107995
9.84018,102640
9.84278,105703
9.84540,108602
9.84800,104699
9.85062,105748
9.85322,102125
9.85582,109518
9.85843,105186
9.86103,104772
9.86365,108011
9.86625,107232
9.86885,103031
9.87147,106120
9.87407,107918
9.87668,108416
9.87928,106907
9.88188,106397
9.88450,108951
9.88710,107222
9.88972,105834
9.89232,105976
9.89492,105432
9.89753,107481
9.90013,105914
9.90275,106544
9.90535,109685
9.90795,113663
9.91057,105281
9.91317,104785
9.91578,106289
9.91838,103642
9.92100,105481
9.92360,101937
9.92620,106517
9.92882,110006
9.93142,109336
9.93403,102780
9.93663,105992
9.93923,105118
9.94185,103136
9.94445,103612
9.94707,108914
9.94967,102812
9.95227,106868
9.95488,102533
9.95748,104783
9.96010,107678
9.96270,103561
9.96530,106470
9.96792,107558
9.97052,108038
9.97313,105517
9.97573,109858
9.97833,105242
9.98095,107290
9.98355,104833
9.98617,103056
9.98877,105543
9.99137,105530
9.99398,105110
9.99658,104427
9.99920,107156
10.00180,107317
10.00442,104382
10.00702,104803
10.00962,105838
10.01223,103774
10.01483,104860
10.01745,107126
10.02005,102894
10.02265,107206
10.02527,108853
10.02787,108752
10.03048,105656
10.03308,103079
10.03568,104655
10.03830,106721
10.04090,104303
10.04352,105385
10.04612,106525
10.04872,107292
10.05133,102761
10.05393,104710
10.05655,106547
10.05915,107275
10.06175,108888
10.06437,105577
10.06697,107117
10.06958,109170
10.07218,107989
10.07478,103461
10.07740,105466
10.08000,109347
10.08262,103200
10.08522,101946
10.08783,107269
10.09043,106654
10.09303,108916
10.09565,107721
10.09825,108979
10.10087,104891
10.10347,106081
10.10607,109630
10.10868,104684
10.11128,106016
10.11390,108511
10.11650,109996
10.11910,110748
10.12172,103735
10.12432,103438
10.12693,107743
10.12953,108681
10.13213,104853
10.13475,104580
10.13735,105976
10.13997,105000
10.14257,104954
10.14517,106566
10.14778,108669
10.15038,106745
10.15300,106099
10.15560,105222
10.15820,109806
10.16082,106541
10.16342,111243
10.16603,110003
10.16863,105967
10.17125,101582
10.17385,106058
10.17645,110907
10.17907,107681
10.18167,111034
10.18428,105214
10.18688,105107
10.18948,106608
10.19210,106582
10.19470,102629
10.19732,107006
10.19992,106784
10.20252,106258
10.20513,106502
10.20773,109270
10.21035,107665
10.21295,106441
10.21555,113508
10.21817,106449
10.22077,107372
10.22338,110159
10.22598,108998
10.22858,102729
10.23120,106271
10.23380,110631
10.23642,107368
10.23902,108465
10.24162,106827
10.24423,108415
10.24683,105367
10.24945,103467
10.25205,107432
10.25467,107987
10.25727,107122
10.25987,104360
10.26248,107873
10.26508,106061
10.26770,110028
10.27030,104504
10.27290,106664
10.27552,107325
10.27812,104886
10.28073,108066
10.28333,106124
10.28593,102921
10.28855,103515
10.29115,109454
10.29377,106106
10.29637,107163
10.29897,109285
10.30158,108886
10.30418,104214
10.30680,105983
10.30940,109775
10.31200,110631
10.31462,105666
10.31722,103099
10.31983,107110
10.32243,104320
10.32503,105988
10.32765,106253
10.33025,105742
10.33287,106302
10.33547,105545
10.33808,105054
10.34068,105609
10.34328,105168
10.34590,108531
10.34850,104649
10.35112,108006
10.35372,107245
10.35632,103782
10.35893,105486
10.36153,110291
10.36415,107594
10.36675,108047
10.36935,108097
10.37197,109366
10.37457,107078
10.37718,101339
10.37978,105345
10.38238,110597
10.38500,109116
10.38760,108274
10.39022,113275
10.39282,101910
10.39542,103164
10.39803,108367
10.40063,107764
10.40325,106227
10.40585,104641
10.40845,103589
10.41107,110790
10.41367,108914
10.41628,109306
10.41888,108077
10.42150,110515
10.42410,104717
10.42670,107049
10.42932,106847
10.43192,108534
10.43453,109743
10.43713,107332
10.43973,105836
10.44235,106429
10.44495,110307
10.44757,107653
10.45017,109582
10.45277,104102
10.45538,108601
10.45798,106204
10.46060,106129
10.46320,109904
10.46580,107403
10.46842,104578
10.47102,107720
10.47363,110616
10.47623,107368
10.47883,107047
10.48145,107727
10.48405,111692
10.48667,108304
10.48927,109579
10.49187,108628
10.49448,107740
10.49708,110627
10.49970,110761
10.50230,107306
10.50492,106197
10.50752,112255
10.51012,106958
10.51273,106308
10.51533,103861
10.51795,107342
10.52055,110469
10.52315,107102
10.52577,107671
10.52837,103220
10.53098,105633
10.53358,105705
10.53618,106676
10.53880,109475
10.54140,108864
10.54402,107169
10.54662,109431
10.54922,106823
10.55183,106254
10.55443,104136
10.55705,112002
10.55965,104716
10.56225,110622
10.56487,108144
10.56747,107168
10.57008,108451
10.57268,108734
10.57528,105837
10.57790,107601
10.58050,108625
10.58312,107214
10.58572,106272
10.58833,102603
10.59093,102913
10.59353,105237
10.59615,106403
10.59875,109057
10.60137,108227
10.60397,106365
10.60657,105395
10.60918,103262
10.61178,105227
10.61440,104973
10.61700,106212
10.61960,110711
10.62222,106641
10.62482,106403
10.62743,104913
10.63003,107255
10.63263,109848
10.63525,107430
10.63785,106656
10.64047,106012
10.64307,107867
10.64567,112701
10.64828,105594
10.65088,109136
10.65350,110212
10.65610,108739
10.65870,104964
10.66132,107010
10.66392,107452
