D:\data\overige2021\rk\20200201rk_cocacase28x\B039705.D Mon Feb 01 19:11:19 2021
Start of data points
1.58973,12818
1.59235,13429
1.59495,12293
1.59757,11453
1.60017,11397
1.60277,12441
1.60538,12014
1.60798,13492
1.61060,12310
1.61320,13096
1.61582,10395
1.61842,10253
1.62102,11131
1.62363,12387
1.62623,13285
1.62885,11930
1.63145,11349
1.63405,10454
1.63667,12101
1.63927,13054
1.64188,12284
1.64448,12000
1.64708,10764
1.64970,12000
1.65230,12618
1.65492,12874
1.65752,12260
1.66012,10749
1.66273,9927
1.66533,10502
1.66795,11815
1.67055,11520
1.67315,11055
1.67577,11096
1.67837,11017
1.68098,11248
1.68358,10074
1.68618,11193
1.68880,12763
1.69140,10894
1.69402,8890
1.69662,9611
1.69923,11297
1.70183,10841
1.70443,9947
1.70705,9595
1.70965,11059
1.71227,10012
1.71487,10380
1.71747,10244
1.72008,9747
1.72268,8594
1.72530,8578
1.72790,10757
1.73050,10072
1.73312,9466
1.73572,8752
1.73833,7576
1.74093,9260
1.74353,10960
1.74615,9429
1.74875,8684
1.75137,9428
1.75397,9122
1.75657,8943
1.75918,8420
1.76178,9125
1.76440,9242
1.76700,9566
1.76960,10465
1.77222,9542
1.77482,9262
1.77743,7236
1.78003,8844
1.78265,8100
1.78525,8904
1.78785,8111
1.79047,8302
1.79307,7824
1.79568,9745
1.79828,7858
1.80088,8793
1.80350,7717
1.80610,7782
1.80872,8418
1.81132,7308
1.81392,6441
1.81653,7799
1.81913,8656
1.82175,7245
1.82435,6696
1.82695,7774
1.82957,8480
1.83217,7287
1.83478,8216
1.83738,7272
1.83998,7496
1.84260,8512
1.84520,7756
1.84782,7973
1.85042,7059
1.85302,8035
1.85563,6487
1.85823,6567
1.86085,6566
1.86345,6706
1.86607,7230
1.86867,6568
1.87127,6674
1.87388,7132
1.87648,7358
1.87910,6724
1.88170,9589
1.88430,5980
1.88692,7453
1.88952,6188
1.89213,7385
1.89473,7590
1.89733,7318
1.89995,6267
1.90255,6809
1.90517,6782
1.90777,7811
1.91037,5914
1.91298,7276
1.91558,5012
1.91820,6461
1.92080,6853
1.92340,6708
1.92602,5341
1.92862,7904
1.93123,6413
1.93383,5694
1.93643,7096
1.93905,6313
1.94165,7066
1.94427,7255
1.94687,7555
1.94948,8115
1.95208,5693
1.95468,7084
1.95730,6496
1.95990,7804
1.96252,7420
1.96512,6181
1.96772,6430
1.97033,5817
1.97293,5277
1.97555,6841
1.97815,5469
1.98075,5052
1.98337,6793
1.98597,6507
1.98858,6666
1.99118,7366
1.99378,6522
1.99640,6413
1.99900,6095
2.00162,6344
2.00422,7189
2.00682,6481
2.00943,6298
2.01203,6601
2.01465,6158
2.01725,5888
2.01985,6997
2.02247,5719
2.02507,7206
2.02768,7164
2.03028,4819
2.03290,7126
2.03550,7777
2.03810,7647
2.04072,8898
2.04332,9286
2.04593,8688
2.04853,9095
2.05113,9646
2.05375,8627
2.05635,8407
2.05897,9299
2.06157,7494
2.06417,8631
2.06678,7894
2.06938,7541
2.07200,8025
2.07460,6438
2.07720,6401
2.07982,6526
2.08242,7251
2.08503,7268
2.08763,8476
2.09023,7939
2.09285,7290
2.09545,6769
2.09807,6226
2.10067,7145
2.10327,6574
2.10588,7623
2.10848,5963
2.11110,8151
2.11370,5616
2.11632,6958
2.11892,6122
2.12152,5515
2.12413,7750
2.12673,6111
2.12935,5722
2.13195,7864
2.13455,5922
2.13717,7227
2.13977,7422
2.14238,6528
2.14498,5628
2.14758,5919
2.15020,6587
2.15280,6738
2.15542,5589
2.15802,7368
2.16062,6981
2.16323,8117
2.16583,5899
2.16845,7087
2.17105,6645
2.17365,6735
2.17627,6249
2.17887,5461
2.18148,6753
2.18408,5557
2.18668,5594
2.18930,6949
2.19190,6162
2.19452,5253
2.19712,6078
2.19973,5242
2.20233,6016
2.20493,6893
2.20755,5792
2.21015,6645
2.21277,6197
2.21537,7088
2.21797,4935
2.22058,5071
2.22318,6235
2.22580,5705
2.22840,6670
2.23100,5677
2.23362,5570
2.23622,5748
2.23883,5328
2.24143,5374
2.24403,4716
2.24665,6597
2.24925,5438
2.25187,5899
2.25447,5965
2.25707,5187
2.25968,4669
2.26228,6453
2.26490,5324
2.26750,5109
2.27010,5714
2.27272,6521
2.27532,5109
2.27793,4971
2.28053,5099
2.28315,6035
2.28575,6529
2.28835,5127
2.29097,6572
2.29357,6041
2.29618,5459
2.29878,6316
2.30138,5726
2.30400,5703
2.30660,5724
2.30922,6356
2.31182,4574
2.31442,6196
2.31703,7157
2.31963,5470
2.32225,5529
2.32485,5814
2.32745,5219
2.33007,5374
2.33267,5949
2.33528,7295
2.33788,5658
2.34048,6454
2.34310,6168
2.34570,5732
2.34832,4850
2.35092,5185
2.35352,6339
2.35613,5651
2.35873,5573
2.36135,5909
2.36395,5243
2.36657,5554
2.36917,6065
2.37177,5904
2.37438,4866
2.37698,5432
2.37960,6506
2.38220,4818
2.38480,5031
2.38742,4677
2.39002,7095
2.39263,5830
2.39523,5025
2.39783,5612
2.40045,5073
2.40305,5299
2.40567,5203
2.40827,7104
2.41087,5903
2.41348,5543
2.41608,5799
2.41870,5045
2.42130,5130
2.42390,6413
2.42652,6096
2.42912,6204
2.43173,5083
2.43433,5114
2.43693,6683
2.43955,5020
2.44215,5752
2.44477,4954
2.44737,7246
2.44998,7211
2.45258,7798
2.45518,8806
2.45780,9380
2.46040,10541
2.46302,9349
2.46562,10546
2.46822,11913
2.47083,9650
2.47343,8862
2.47605,7522
2.47865,8763
2.48125,8534
2.48387,8316
2.48647,9711
2.48908,7589
2.49168,5793
2.49428,6311
2.49690,6344
2.49950,7598
2.50212,7668
2.50472,6926
2.50732,6426
2.50993,5264
2.51253,7089
2.51515,5571
2.51775,5878
2.52035,5822
2.52297,6300
2.52557,6152
2.52818,5805
2.53078,5469
2.53340,6683
2.53600,5656
2.53860,5858
2.54122,6501
2.54382,6259
2.54643,6113
2.54903,6047
2.55163,6947
2.55425,5342
2.55685,5099
2.55947,6021
2.56207,5630
2.56467,4994
2.56728,4865
2.56988,4688
2.57250,5439
2.57510,6682
2.57770,5876
2.58032,6784
2.58292,5793
2.58553,5979
2.58813,7781
2.59073,7298
2.59335,5599
2.59595,7735
2.59857,5259
2.60117,5809
2.60377,5770
2.60638,5544
2.60898,5814
2.61160,5440
2.61420,5241
2.61682,4921
2.61942,5482
2.62202,6571
2.62463,6255
2.62723,6701
2.62985,6375
2.63245,5445
2.63505,5214
2.63767,5449
2.64027,5665
2.64288,4776
2.64548,4350
2.64808,5171
2.65070,4857
2.65330,6077
2.65592,5277
2.65852,4868
2.66112,6120
2.66373,5756
2.66633,5110
2.66895,4375
2.67155,5709
2.67415,5317
2.67677,6108
2.67937,4957
2.68198,6588
2.68458,5480
2.68718,5676
2.68980,5894
2.69240,5216
2.69502,5432
2.69762,4630
2.70023,5567
2.70283,5632
2.70543,5851
2.70805,6074
2.71065,6246
2.71327,5104
2.71587,5616
2.71847,5756
2.72108,5898
2.72368,5377
2.72630,6255
2.72890,5529
2.73150,5192
2.73412,4214
2.73672,5174
2.73933,5556
2.74193,6170
2.74453,5875
2.74715,5062
2.74975,5262
2.75237,4785
2.75497,5869
2.75757,5294
2.76018,5343
2.76278,4704
2.76540,6597
2.76800,4754
2.77060,4981
2.77322,5039
2.77582,4984
2.77843,5136
2.78103,4920
2.78365,5969
2.78625,5614
2.78885,5856
2.79147,5018
2.79407,4994
2.79668,5785
2.79928,6075
2.80188,5687
2.80450,5147
2.80710,5898
2.80972,3583
2.81232,4854
2.81492,4664
2.81753,5681
2.82013,5367
2.82275,4624
2.82535,5794
2.82795,5373
2.83057,5936
2.83317,5888
2.83578,5211
2.83838,5471
2.84098,5329
2.84360,5422
2.84620,7126
2.84882,6275
2.85142,4962
2.85402,4826
2.85663,4589
2.85923,5804
2.86185,4370
2.86445,4548
2.86707,4404
2.86967,4161
2.87227,4791
2.87488,5701
2.87748,4229
2.88010,5310
2.88270,6015
2.88530,5770
2.88792,4596
2.89052,3945
2.89313,4880
2.89573,5110
2.89833,5300
2.90095,6030
2.90355,5873
2.90617,5409
2.90877,5471
2.91137,6554
2.91398,5131
2.91658,5470
2.91920,6209
2.92180,4342
2.92440,6020
2.92702,6437
2.92962,5518
2.93223,6417
2.93483,5017
2.93743,3919
2.94005,6519
2.94265,5750
2.94527,4724
2.94787,5696
2.95048,5545
2.95308,5707
2.95568,5864
2.95830,5687
2.96090,5686
2.96352,4276
2.96612,5234
2.96872,5866
2.97133,4998
2.97393,6450
2.97655,7036
2.97915,7435
2.98175,7139
2.98437,5573
2.98697,6146
2.98958,4836
2.99218,5191
2.99478,5027
2.99740,5556
3.00000,4232
3.00262,5560
3.00522,5085
3.00782,4435
3.01043,4469
3.01303,5266
3.01565,4787
3.01825,4015
3.02085,5556
3.02347,5546
3.02607,4440
3.02868,5330
3.03128,5989
3.03390,4819
3.03650,5006
3.03910,5438
3.04172,4194
3.04432,5629
3.04693,5357
3.04953,4645
3.05213,4629
3.05475,4917
3.05735,6017
3.05997,5135
3.06257,4732
3.06517,4233
3.06778,4527
3.07038,5244
3.07300,5622
3.07560,5220
3.07820,4114
3.08082,5431
3.08342,5267
3.08603,5323
3.08863,6664
3.09123,5782
3.09385,5159
3.09645,4957
3.09907,5623
3.10167,5896
3.10427,4835
3.10688,5398
3.10948,5667
3.11210,5073
3.11470,7745
3.11732,10214
3.11992,14051
3.12252,18139
3.12513,24799
3.12773,28578
3.13035,28102
3.13295,28657
3.13555,25179
3.13817,26317
3.14077,20846
3.14338,19078
3.14598,19548
3.14858,18747
3.15120,17258
3.15380,15397
3.15642,14854
3.15902,13265
3.16162,14003
3.16423,13472
3.16683,12146
3.16945,11407
3.17205,12865
3.17465,9223
3.17727,12191
3.17987,12157
3.18248,11607
3.18508,9198
3.18768,9350
3.19030,9557
3.19290,10039
3.19552,9507
3.19812,9027
3.20073,7880
3.20333,9419
3.20593,9348
3.20855,6597
3.21115,7307
3.21377,8500
3.21637,8234
3.21897,8711
3.22158,8758
3.22418,7012
3.22680,6713
3.22940,7028
3.23200,7588
3.23462,8912
3.23722,7200
3.23983,7903
3.24243,7433
3.24503,7448
3.24765,6756
3.25025,6735
3.25287,6716
3.25547,6943
3.25807,7132
3.26068,7169
3.26328,5889
3.26590,7848
3.26850,7680
3.27110,6421
3.27372,7690
3.27632,7120
3.27893,8222
3.28153,7994
3.28415,7506
3.28675,7475
3.28935,7725
3.29197,7726
3.29457,7340
3.29718,8301
3.29978,5592
3.30238,5781
3.30500,6387
3.30760,5830
3.31022,5960
3.31282,5488
3.31542,6932
3.31803,6023
3.32063,5773
3.32325,7803
3.32585,6784
3.32845,6417
3.33107,7036
3.33367,7200
3.33628,7526
3.33888,6399
3.34148,6869
3.34410,6913
3.34670,5724
3.34932,6128
3.35192,6988
3.35452,6681
3.35713,5692
3.35973,7236
3.36235,4925
3.36495,7888
3.36757,5201
3.37017,5295
3.37277,6937
3.37538,5966
3.37798,4893
3.38060,4627
3.38320,5936
3.38580,6318
3.38842,6677
3.39102,7280
3.39363,8539
3.39623,10449
3.39883,10367
3.40145,10488
3.40405,9039
3.40667,10490
3.40927,8927
3.41187,9382
3.41448,7327
3.41708,9013
3.41970,7968
3.42230,7849
3.42490,8419
3.42752,7457
3.43012,6443
3.43273,7780
3.43533,6182
3.43793,7074
3.44055,7627
3.44315,6874
3.44577,7248
3.44837,7148
3.45098,5906
3.45358,7775
3.45618,6933
3.45880,6977
3.46140,6286
3.46402,5747
3.46662,6589
3.46922,6163
3.47183,6765
3.47443,7381
3.47705,6312
3.47965,5985
3.48225,5491
3.48487,5898
3.48747,6080
3.49008,6511
3.49268,5611
3.49528,5463
3.49790,5914
3.50050,6129
3.50312,6710
3.50572,7349
3.50832,10018
3.51093,12957
3.51353,27002
3.51615,44349
3.51875,68179
3.52135,74784
3.52397,75005
3.52657,58631
3.52918,46474
3.53178,33957
3.53440,27449
3.53700,22283
3.53960,20885
3.54222,17088
3.54482,17142
3.54743,15238
3.55003,14437
3.55263,14053
3.55525,13598
3.55785,13174
3.56047,12413
3.56307,13778
3.56567,13176
3.56828,13109
3.57088,11395
3.57350,10987
3.57610,12042
3.57870,10520
3.58132,12505
3.58392,10827
3.58653,12647
3.58913,11915
3.59173,13783
3.59435,11239
3.59695,11689
3.59957,11447
3.60217,12834
3.60477,11334
3.60738,10790
3.60998,11753
3.61260,9908
3.61520,11467
3.61782,13919
3.62042,11037
3.62302,10362
3.62563,11813
3.62823,11837
3.63085,13677
3.63345,13514
3.63605,14599
3.63867,15311
3.64127,16526
3.64388,14961
3.64648,12539
3.64908,13209
3.65170,13454
3.65430,13476
3.65692,11180
3.65952,12429
3.66212,11924
3.66473,11929
3.66733,12019
3.66995,11376
3.67255,10112
3.67515,12274
3.67777,11188
3.68037,10730
3.68298,11591
3.68558,11898
3.68818,12103
3.69080,11286
3.69340,11720
3.69602,10274
3.69862,10612
3.70123,10065
3.70383,11525
3.70643,10966
3.70905,10470
3.71165,12248
3.71427,11451
3.71687,11774
3.71947,9950
3.72208,11766
3.72468,8979
3.72730,11839
3.72990,11627
3.73250,10295
3.73512,9362
3.73772,10569
3.74033,10452
3.74293,9950
3.74553,10149
3.74815,11197
3.75075,9772
3.75337,11218
3.75597,9432
3.75857,9911
3.76118,11139
3.76378,10755
3.76640,9749
3.76900,10041
3.77160,9377
3.77422,9794
3.77682,10319
3.77943,9984
3.78203,11055
3.78465,10501
3.78725,9262
3.78985,11883
3.79247,10559
3.79507,10823
3.79768,10240
3.80028,9665
3.80288,10029
3.80550,9930
3.80810,10098
3.81072,10841
3.81332,11345
3.81592,13356
3.81853,14157
3.82113,12776
3.82375,12631
3.82635,10126
3.82895,10246
3.83157,9537
3.83417,10859
3.83678,9208
3.83938,9207
3.84198,10243
3.84460,9664
3.84720,11034
3.84982,7663
3.85242,9408
3.85502,9851
3.85763,9319
3.86023,9953
3.86285,8323
3.86545,8106
3.86807,8911
3.87067,9197
3.87327,8833
3.87588,9157
3.87848,8567
3.88110,9201
3.88370,10639
3.88630,8960
3.88892,9615
3.89152,10461
3.89413,9403
3.89673,9168
3.89933,8379
3.90195,10201
3.90455,9536
3.90717,10407
3.90977,10162
3.91237,10077
3.91498,8621
3.91758,10007
3.92020,9815
3.92280,10732
3.92540,11742
3.92802,12728
3.93062,14999
3.93323,18232
3.93583,20990
3.93843,22946
3.94105,22665
3.94365,21690
3.94627,21349
3.94887,14497
3.95148,15241
3.95408,13153
3.95668,14128
3.95930,13450
3.96190,12903
3.96452,12332
3.96712,11691
3.96972,11626
3.97233,9714
3.97493,11451
3.97755,10627
3.98015,10462
3.98275,11421
3.98537,12077
3.98797,9893
3.99058,10724
3.99318,11538
3.99578,9320
3.99840,10817
4.00100,9686
4.00362,10530
4.00622,11644
4.00882,9468
4.01143,11558
4.01403,10589
4.01665,11017
4.01925,9651
4.02185,11987
4.02447,11071
4.02707,10634
4.02968,9763
4.03228,10576
4.03490,10390
4.03750,10245
4.04010,9664
4.04272,10721
4.04532,8145
4.04793,10392
4.05053,9752
4.05313,9415
4.05575,9656
4.05835,12577
4.06097,9942
4.06357,10018
4.06617,9118
4.06878,10452
4.07138,8986
4.07400,9266
4.07660,8694
4.07920,9642
4.08182,10467
4.08442,9818
4.08703,10091
4.08963,11620
4.09223,10040
4.09485,10459
4.09745,9128
4.10007,9794
4.10267,8641
4.10527,9747
4.10788,9883
4.11048,9351
4.11310,8384
4.11570,9063
4.11832,10957
4.12092,10263
4.12352,9222
4.12613,9380
4.12873,9339
4.13135,11271
4.13395,11267
4.13655,9043
4.13917,8217
4.14177,9426
4.14438,9631
4.14698,9145
4.14958,9708
4.15220,9231
4.15480,10666
4.15742,10187
4.16002,8816
4.16262,8585
4.16523,9913
4.16783,9646
4.17045,9269
4.17305,8476
4.17565,8923
4.17827,8376
4.18087,9731
4.18348,10834
4.18608,10198
4.18868,9354
4.19130,9965
4.19390,10521
4.19652,8698
4.19912,9508
4.20173,10507
4.20433,9606
4.20693,9876
4.20955,10494
4.21215,9334
4.21477,8893
4.21737,9356
4.21997,9604
4.22258,9362
4.22518,8696
4.22780,8172
4.23040,9525
4.23300,8739
4.23562,10793
4.23822,10100
4.24083,7297
4.24343,8199
4.24603,9770
4.24865,8411
4.25125,9632
4.25387,8573
4.25647,9554
4.25907,9337
4.26168,9343
4.26428,10150
4.26690,10330
4.26950,9570
4.27210,9009
4.27472,8923
4.27732,9482
4.27993,9028
4.28253,9812
4.28515,8530
4.28775,10087
4.29035,9693
4.29297,8967
4.29557,11393
4.29818,8545
4.30078,8046
4.30338,10275
4.30600,9937
4.30860,10809
4.31122,8863
4.31382,9764
4.31642,9250
4.31903,8501
4.32163,9750
4.32425,8642
4.32685,8983
4.32945,8400
4.33207,9849
4.33467,8800
4.33728,9975
4.33988,8452
4.34248,10283
4.34510,9646
4.34770,10039
4.35032,9234
4.35292,9754
4.35552,10199
4.35813,9107
4.36073,9907
4.36335,8756
4.36595,8965
4.36857,9215
4.37117,10833
4.37377,9319
4.37638,8648
4.37898,8588
4.38160,8217
4.38420,9573
4.38680,10778
4.38942,8716
4.39202,8718
4.39463,8881
4.39723,10209
4.39983,9352
4.40245,10637
4.40505,10163
4.40767,11014
4.41027,8735
4.41287,9239
4.41548,9878
4.41808,8502
4.42070,11081
4.42330,11446
4.42590,9338
4.42852,9115
4.43112,9146
4.43373,9543
4.43633,8191
4.43893,8862
4.44155,10816
4.44415,11231
4.44677,11006
4.44937,12090
4.45198,8406
4.45458,6926
4.45718,10619
4.45980,11254
4.46240,9497
4.46502,9563
4.46762,9944
4.47022,10144
4.47283,9801
4.47543,9661
4.47805,9772
4.48065,9268
4.48325,8743
4.48587,10186
4.48847,9665
4.49108,7937
4.49368,10034
4.49628,9689
4.49890,9305
4.50150,9911
4.50412,10706
4.50672,13003
4.50932,12236
4.51193,13111
4.51453,14351
4.51715,12669
4.51975,11776
4.52235,10328
4.52497,10606
4.52757,9131
4.53018,9610
4.53278,10124
4.53540,8949
4.53800,7812
4.54060,9781
4.54322,8166
4.54582,7786
4.54843,9726
4.55103,8776
4.55363,9441
4.55625,10259
4.55885,11142
4.56147,11745
4.56407,8820
4.56667,9834
4.56928,8553
4.57188,9311
4.57450,8503
4.57710,7817
4.57970,9377
4.58232,9154
4.58492,10727
4.58753,9138
4.59013,8816
4.59273,7499
4.59535,10108
4.59795,8234
4.60057,8430
4.60317,10006
4.60577,9341
4.60838,9543
4.61098,9026
4.61360,9121
4.61620,9003
4.61882,9816
4.62142,9756
4.62402,9412
4.62663,9395
4.62923,9255
4.63185,8274
4.63445,10054
4.63705,8529
4.63967,8587
4.64227,7965
4.64488,7600
4.64748,9706
4.65008,9416
4.65270,8618
4.65530,8072
4.65792,9600
4.66052,9034
4.66312,10205
4.66573,8855
4.66833,10157
4.67095,9468
4.67355,9279
4.67615,9542
4.67877,10857
4.68137,9471
4.68398,9586
4.68658,9750
4.68918,8443
4.69180,9289
4.69440,9676
4.69702,9461
4.69962,8422
4.70223,9251
4.70483,8348
4.70743,10279
4.71005,10325
4.71265,9135
4.71527,10974
4.71787,9264
4.72047,9630
4.72308,8975
4.72568,8509
4.72830,9992
4.73090,9924
4.73350,9583
4.73612,8639
4.73872,10022
4.74133,7717
4.74393,9241
4.74653,8538
4.74915,8532
4.75175,10147
4.75437,8537
4.75697,8009
4.75957,9303
4.76218,9452
4.76478,9745
4.76740,9850
4.77000,9646
4.77260,8350
4.77522,9300
4.77782,10144
4.78043,9916
4.78303,10364
4.78565,9096
4.78825,10379
4.79085,9016
4.79347,10637
4.79607,9333
4.79868,8099
4.80128,9634
4.80388,9520
4.80650,10890
4.80910,9706
4.81172,11247
4.81432,9733
4.81692,10141
4.81953,9342
4.82213,9359
4.82475,10420
4.82735,10402
4.82995,9992
4.83257,9149
4.83517,9564
4.83778,9113
4.84038,9403
4.84298,9516
4.84560,9736
4.84820,10495
4.85082,9113
4.85342,9820
4.85602,10268
4.85863,8816
4.86123,8796
4.86385,9068
4.86645,10245
4.86907,9857
4.87167,9361
4.87427,8242
4.87688,8226
4.87948,9028
4.88210,9056
4.88470,8317
4.88730,9827
4.88992,9759
4.89252,10550
4.89513,9912
4.89773,10605
4.90033,9776
4.90295,10934
4.90555,9768
4.90817,9797
4.91077,9957
4.91337,8605
4.91598,10119
4.91858,9509
4.92120,9912
4.92380,9482
4.92640,8495
4.92902,9002
4.93162,7475
4.93423,9371
4.93683,8775
4.93943,8655
4.94205,9063
4.94465,8378
4.94727,9259
4.94987,9433
4.95248,7789
4.95508,10360
4.95768,8868
4.96030,9886
4.96290,8965
4.96552,8240
4.96812,8871
4.97072,9677
4.97333,9554
4.97593,8910
4.97855,9170
4.98115,9919
4.98375,9566
4.98637,10695
4.98897,9939
4.99158,10728
4.99418,8189
4.99678,9341
4.99940,10689
5.00200,9970
5.00462,9138
5.00722,9328
5.00982,9648
5.01243,10329
5.01503,10173
5.01765,9254
5.02025,9526
5.02287,9161
5.02547,11138
5.02807,10337
5.03068,9131
5.03328,9654
5.03590,10217
5.03850,9118
5.04110,9439
5.04372,10239
5.04632,10792
5.04893,9534
5.05153,9801
5.05413,9283
5.05675,9518
5.05935,10028
5.06197,9077
5.06457,10649
5.06717,9570
5.06978,9316
5.07238,9137
5.07500,9083
5.07760,8991
5.08020,7543
5.08282,9252
5.08542,11194
5.08803,11061
5.09063,14169
5.09323,13956
5.09585,13571
5.09845,13565
5.10107,11884
5.10367,9507
5.10628,10067
5.10888,10684
5.11148,9692
5.11410,9392
5.11670,9914
5.11932,11017
5.12192,7697
5.12452,9223
5.12713,8824
5.12973,11027
5.13235,11054
5.13495,9685
5.13755,9548
5.14017,10195
5.14277,10049
5.14538,10082
5.14798,9318
5.15058,9130
5.15320,8810
5.15580,8708
5.15842,9695
5.16102,9128
5.16362,9799
5.16623,9915
5.16883,9286
5.17145,10533
5.17405,9596
5.17665,10186
5.17927,10222
5.18187,9543
5.18448,8981
5.18708,10181
5.18970,9945
5.19230,10378
5.19490,10378
5.19752,8576
5.20012,11764
5.20273,9244
5.20533,9974
5.20793,10146
5.21055,9695
5.21315,9613
5.21577,9914
5.21837,10977
5.22097,10206
5.22358,9648
5.22618,10879
5.22880,9487
5.23140,10693
5.23400,9674
5.23662,9524
5.23922,10523
5.24183,9734
5.24443,9259
5.24703,8986
5.24965,9154
5.25225,9819
5.25487,10117
5.25747,10918
5.26007,8539
5.26268,9525
5.26528,10575
5.26790,9185
5.27050,8336
5.27312,10099
5.27572,11638
5.27832,10253
5.28093,10273
5.28353,10808
5.28615,9619
5.28875,10086
5.29135,10785
5.29397,8397
5.29657,10434
5.29918,9356
5.30178,9481
5.30438,10252
5.30700,8586
5.30960,10844
5.31222,8658
5.31482,9835
5.31742,10000
5.32003,10003
5.32263,10021
5.32525,10802
5.32785,9671
5.33045,9658
5.33307,11106
5.33567,9478
5.33828,11414
5.34088,10149
5.34348,9846
5.34610,10064
5.34870,11287
5.35132,9750
5.35392,9284
5.35653,9979
5.35913,8438
5.36173,9290
5.36435,10189
5.36695,9786
5.36957,9552
5.37217,10658
5.37477,10374
5.37738,11353
5.37998,10516
5.38260,12622
5.38520,11250
5.38780,10031
5.39042,10226
5.39302,9171
5.39563,9540
5.39823,9997
5.40083,10610
5.40345,10562
5.40605,12094
5.40867,10408
5.41127,9330
5.41387,10616
5.41648,8574
5.41908,9033
5.42170,9782
5.42430,9345
5.42690,10653
5.42952,11086
5.43212,9150
5.43473,9186
5.43733,10510
5.43995,9409
5.44255,11199
5.44515,8378
5.44777,9478
5.45037,11298
5.45298,11810
5.45558,13763
5.45818,15537
5.46080,13479
5.46340,12617
5.46602,12178
5.46862,11190
5.47122,11964
5.47383,11554
5.47643,11129
5.47905,11247
5.48165,12386
5.48425,12184
5.48687,11310
5.48947,10748
5.49208,10736
5.49468,9973
5.49728,11522
5.49990,11106
5.50250,9172
5.50512,10994
5.50772,10811
5.51032,10915
5.51293,10899
5.51553,11022
5.51815,10885
5.52075,11305
5.52337,8883
5.52597,13067
5.52857,10574
5.53118,10114
5.53378,12110
5.53640,10475
5.53900,11278
5.54160,10649
5.54422,10496
5.54682,11000
5.54943,11146
5.55203,10342
5.55463,10420
5.55725,11091
5.55985,9808
5.56247,11183
5.56507,10715
5.56767,10158
5.57028,9654
5.57288,10716
5.57550,9912
5.57810,8526
5.58070,10666
5.58332,9302
5.58592,10316
5.58853,10471
5.59113,11530
5.59373,11983
5.59635,10921
5.59895,12533
5.60157,13352
5.60417,12181
5.60678,13448
5.60938,12241
5.61198,12632
5.61460,11842
5.61720,10128
5.61982,10614
5.62242,10662
5.62502,10549
5.62763,11461
5.63023,11099
5.63285,9633
5.63545,10143
5.63805,11220
5.64067,11248
5.64327,10490
5.64588,10376
5.64848,10460
5.65108,10805
5.65370,11518
5.65630,10561
5.65892,9400
5.66152,10706
5.66412,11682
5.66673,11064
5.66933,10843
5.67195,10884
5.67455,11761
5.67715,10008
5.67977,9062
5.68237,11056
5.68498,9219
5.68758,10519
5.69020,11219
5.69280,11796
5.69540,11492
5.69802,9328
5.70062,9677
5.70323,10896
5.70583,12869
5.70843,12947
5.71105,12628
5.71365,10146
5.71627,10809
5.71887,10429
5.72147,11688
5.72408,13323
5.72668,10972
5.72930,11278
5.73190,11826
5.73450,10317
5.73712,11810
5.73972,11001
5.74233,10518
5.74493,10270
5.74753,10087
5.75015,9876
5.75275,11251
5.75537,11048
5.75797,10627
5.76057,11550
5.76318,10563
5.76578,11404
5.76840,10974
5.77100,11316
5.77362,11277
5.77622,10378
5.77882,11142
5.78143,11445
5.78403,10771
5.78665,11180
5.78925,10612
5.79185,9854
5.79447,11595
5.79707,10676
5.79968,12247
5.80228,10593
5.80488,11550
5.80750,11782
5.81010,13219
5.81272,17740
5.81532,30041
5.81792,46983
5.82053,60355
5.82313,66585
5.82575,63231
5.82835,43622
5.83095,31517
5.83357,21855
5.83617,17923
5.83878,17426
5.84138,19089
5.84398,20678
5.84660,19159
5.84920,16709
5.85182,13771
5.85442,13728
5.85703,11819
5.85963,12260
5.86223,13096
5.86485,12746
5.86745,9980
5.87007,11864
5.87267,12259
5.87527,11492
5.87788,11507
5.88048,11042
5.88310,12310
5.88570,12002
5.88830,11933
5.89092,11870
5.89352,11136
5.89613,11494
5.89873,12728
5.90133,13159
5.90395,14070
5.90655,13293
5.90917,13055
5.91177,13228
5.91437,11472
5.91698,10889
5.91958,12692
5.92220,13478
5.92480,13506
5.92740,13319
5.93002,14084
5.93262,12470
5.93523,15505
5.93783,15855
5.94045,14587
5.94305,16086
5.94565,14987
5.94827,15663
5.95087,13580
5.95348,15048
5.95608,14126
5.95868,14636
5.96130,12837
5.96390,11858
5.96652,14214
5.96912,14290
5.97172,13569
5.97433,14874
5.97693,14852
5.97955,13709
5.98215,14947
5.98475,13760
5.98737,12424
5.98997,12806
5.99258,15016
5.99518,13213
5.99778,12692
6.00040,12337
6.00300,12914
6.00562,12920
6.00822,13722
6.01082,13539
6.01343,12840
6.01603,13583
6.01865,10857
6.02125,13030
6.02387,14844
6.02647,13664
6.02907,12916
6.03168,14285
6.03428,14290
6.03690,12063
6.03950,12774
6.04210,13474
6.04472,14690
6.04732,15937
6.04993,16858
6.05253,19944
6.05513,22339
6.05775,20749
6.06035,19342
6.06297,20669
6.06557,19115
6.06817,21719
6.07078,18842
6.07338,16557
6.07600,18426
6.07860,15807
6.08120,15386
6.08382,14373
6.08642,14782
6.08903,16166
6.09163,13317
6.09423,13468
6.09685,13144
6.09945,15100
6.10207,13796
6.10467,13851
6.10728,13407
6.10988,15395
6.11248,15337
6.11510,15455
6.11770,15088
6.12032,14797
6.12292,12065
6.12552,14083
6.12813,13134
6.13073,14867
6.13335,16058
6.13595,14624
6.13855,14550
6.14117,14250
6.14377,13518
6.14638,13889
6.14898,14497
6.15158,11902
6.15420,13530
6.15680,13508
6.15942,12535
6.16202,12733
6.16462,12888
6.16723,12175
6.16983,13316
6.17245,14664
6.17505,16581
6.17765,15853
6.18027,16406
6.18287,14433
6.18548,13596
6.18808,12115
6.19070,16133
6.19330,11934
6.19590,10503
6.19852,10905
6.20112,12781
6.20373,11976
6.20633,12173
6.20893,11759
6.21155,11290
6.21415,12177
6.21677,11936
6.21937,12909
6.22197,11418
6.22458,13491
6.22718,12602
6.22980,11220
6.23240,12246
6.23500,12130
6.23762,13366
6.24022,12481
6.24283,12319
6.24543,11141
6.24803,11694
6.25065,12065
6.25325,12375
6.25587,12140
6.25847,12854
6.26107,11298
6.26368,11519
6.26628,12475
6.26890,13712
6.27150,11071
6.27412,12308
6.27672,12088
6.27932,12656
6.28193,12028
6.28453,12471
6.28715,12695
6.28975,12089
6.29235,11702
6.29497,12224
6.29757,12379
6.30018,11903
6.30278,11694
6.30538,13207
6.30800,12476
6.31060,13547
6.31322,12075
6.31582,11185
6.31842,11763
6.32103,12558
6.32363,11266
6.32625,12578
6.32885,12880
6.33145,11772
6.33407,11961
6.33667,12794
6.33928,11660
6.34188,13120
6.34448,12651
6.34710,12707
6.34970,13451
6.35232,12992
6.35492,13359
6.35753,12178
6.36013,12592
6.36273,12928
6.36535,12847
6.36795,11061
6.37057,12360
6.37317,14074
6.37577,12782
6.37838,12661
6.38098,12614
6.38360,12566
6.38620,11933
6.38880,11830
6.39142,11136
6.39402,12687
6.39663,12094
6.39923,11651
6.40183,14185
6.40445,12854
6.40705,13414
6.40967,13066
6.41227,12937
6.41487,13958
6.41748,13568
6.42008,13999
6.42270,13976
6.42530,12270
6.42790,13298
6.43052,11671
6.43312,12598
6.43573,12124
6.43833,13535
6.44095,11914
6.44355,13989
6.44615,11376
6.44877,13114
6.45137,11856
6.45398,11139
6.45658,13534
6.45918,13173
6.46180,13392
6.46440,12026
6.46702,12005
6.46962,12832
6.47222,12481
6.47483,12980
6.47743,13990
6.48005,13857
6.48265,13263
6.48525,16649
6.48787,15354
6.49047,14812
6.49308,16057
6.49568,16408
6.49828,19448
6.50090,24968
6.50350,30063
6.50612,34906
6.50872,32486
6.51132,26709
6.51393,20819
6.51653,16905
6.51915,16187
6.52175,15398
6.52437,14517
6.52697,12512
6.52957,14757
6.53218,12741
6.53478,13019
6.53740,13220
6.54000,14322
6.54260,14122
6.54522,14269
6.54782,13242
6.55043,12476
6.55303,14179
6.55563,14530
6.55825,13566
6.56085,13517
6.56347,13716
6.56607,15028
6.56867,11771
6.57128,13071
6.57388,13284
6.57650,13974
6.57910,11825
6.58170,12061
6.58432,15079
6.58692,20786
6.58953,53897
6.59213,194641
6.59473,701970
6.59735,2208344
6.59995,5402019
6.60257,1.079024E+07
6.60517,1.648692E+07
6.60778,2.20417E+07
6.61038,2.757796E+07
6.61298,3.206469E+07
6.61560,3.613887E+07
6.61820,3.848966E+07
6.62082,3.394463E+07
6.62342,1.840996E+07
6.62602,4865110
6.62863,1111776
6.63123,420707
6.63385,262339
6.63645,197231
6.63905,161292
6.64167,129097
6.64427,117760
6.64688,104019
6.64948,93561
6.65208,84139
6.65470,80208
6.65730,70684
6.65992,65025
6.66252,61612
6.66512,58159
6.66773,55819
6.67033,53671
6.67295,50320
6.67555,52632
6.67815,45092
6.68077,45683
6.68337,42484
6.68598,39851
6.68858,41898
6.69120,38693
6.69380,40249
6.69640,36114
6.69902,38048
6.70162,36379
6.70423,34077
6.70683,34499
6.70943,32726
6.71205,32808
6.71465,32282
6.71727,31373
6.71987,32008
6.72247,32128
6.72508,31534
6.72768,31892
6.73030,30072
6.73290,30583
6.73550,29284
6.73812,29525
6.74072,28179
6.74333,29619
6.74593,28210
6.74853,28362
6.75115,26551
6.75375,26554
6.75637,25830
6.75897,26053
6.76157,25024
6.76418,28558
6.76678,29401
6.76940,30162
6.77200,32670
6.77462,28626
6.77722,25583
6.77982,27562
6.78243,25397
6.78503,23790
6.78765,21202
6.79025,23423
6.79285,21422
6.79547,22819
6.79807,23823
6.80068,23836
6.80328,22778
6.80588,23282
6.80850,22927
6.81110,20493
6.81372,20721
6.81632,20530
6.81892,22178
6.82153,21150
6.82413,21732
6.82675,20842
6.82935,21651
6.83195,20733
6.83457,20677
6.83717,21858
6.83978,18823
6.84238,20213
6.84498,21220
6.84760,21473
6.85020,21275
6.85282,23052
6.85542,24423
6.85803,33343
6.86063,44666
6.86323,62426
6.86585,70195
6.86845,73533
6.87107,67233
6.87367,51463
6.87627,41588
6.87888,36145
6.88148,32683
6.88410,32821
6.88670,28721
6.88930,26663
6.89192,26198
6.89452,22995
6.89713,25035
6.89973,23876
6.90233,22384
6.90495,23124
6.90755,22974
6.91017,23855
6.91277,23134
6.91537,22389
6.91798,20185
6.92058,22040
6.92320,22016
6.92580,20781
6.92840,19528
6.93102,21121
6.93362,24921
6.93623,26494
6.93883,25809
6.94145,28733
6.94405,26113
6.94665,24088
6.94927,21224
6.95187,22033
6.95448,23096
6.95708,23696
6.95968,22248
6.96230,23433
6.96490,22611
6.96752,21892
6.97012,20839
6.97272,19836
6.97533,20586
6.97793,21373
6.98055,19139
6.98315,19579
6.98575,21217
6.98837,19060
6.99097,17616
6.99358,17894
6.99618,19305
6.99878,17765
7.00140,21151
7.00400,19706
7.00662,18816
7.00922,22903
7.01182,18778
7.01443,20339
7.01703,17831
7.01965,19795
7.02225,15837
7.02487,18896
7.02747,19909
7.03007,20296
7.03268,19529
7.03528,20486
7.03790,17943
7.04050,19965
7.04310,19941
7.04572,19081
7.04832,22509
7.05093,26006
7.05353,24003
7.05613,24202
7.05875,23308
7.06135,24039
7.06397,21346
7.06657,22488
7.06917,21379
7.07178,20194
7.07438,18979
7.07700,18603
7.07960,18727
7.08220,20321
7.08482,18928
7.08742,19100
7.09003,19164
7.09263,17731
7.09523,19064
7.09785,18803
7.10045,18058
7.10307,19469
7.10567,17724
7.10828,19785
7.11088,17704
7.11348,17596
7.11610,18721
7.11870,19089
7.12132,18745
7.12392,19967
7.12652,20527
7.12913,19072
7.13173,18863
7.13435,19121
7.13695,19200
7.13955,20023
7.14217,26343
7.14477,40455
7.14738,66111
7.14998,94806
7.15258,113679
7.15520,114417
7.15780,91048
7.16042,63248
7.16302,42269
7.16562,34231
7.16823,27323
7.17083,26495
7.17345,25506
7.17605,23157
7.17865,23665
7.18127,23958
7.18387,23341
7.18648,22162
7.18908,23010
7.19170,22670
7.19430,22107
7.19690,21417
7.19952,21938
7.20212,20922
7.20473,23000
7.20733,25283
7.20993,28790
7.21255,29628
7.21515,33351
7.21777,30161
7.22037,28637
7.22297,26185
7.22558,24526
7.22818,24780
7.23080,20511
7.23340,23410
7.23600,21854
7.23862,24804
7.24122,24152
7.24383,23376
7.24643,23363
7.24903,22521
7.25165,18119
7.25425,20813
7.25687,19188
7.25947,19688
7.26207,19872
7.26468,20810
7.26728,20872
7.26990,20601
7.27250,21032
7.27512,19989
7.27772,20817
7.28032,20935
7.28293,19173
7.28553,20765
7.28815,20616
7.29075,20277
7.29335,20546
7.29597,19802
7.29857,20146
7.30118,18646
7.30378,20566
7.30638,19460
7.30900,17740
7.31160,19920
7.31422,19938
7.31682,21081
7.31942,19887
7.32203,19469
7.32463,20453
7.32725,20338
7.32985,19748
7.33245,20422
7.33507,20412
7.33767,18721
7.34028,19328
7.34288,17834
7.34548,20869
7.34810,20129
7.35070,17397
7.35332,20526
7.35592,20862
7.35853,19779
7.36113,18193
7.36373,18322
7.36635,21548
7.36895,19074
7.37157,17781
7.37417,19280
7.37677,19184
7.37938,19918
7.38198,19359
7.38460,18444
7.38720,21817
7.38980,22132
7.39242,18781
7.39502,21353
7.39763,20690
7.40023,18083
7.40283,19737
7.40545,21456
7.40805,21502
7.41067,20726
7.41327,20665
7.41587,18170
7.41848,19823
7.42108,20625
7.42370,18563
7.42630,19789
7.42890,20984
7.43152,18155
7.43412,19217
7.43673,20366
7.43933,20146
7.44195,19610
7.44455,19346
7.44715,18648
7.44977,20680
7.45237,20433
7.45498,19854
7.45758,20726
7.46018,19483
7.46280,19693
7.46540,20530
7.46802,20028
7.47062,20283
7.47322,19253
7.47583,19284
7.47843,19884
7.48105,22260
7.48365,20341
7.48625,18689
7.48887,20027
7.49147,22864
7.49408,20939
7.49668,22044
7.49928,20307
7.50190,19303
7.50450,20155
7.50712,22240
7.50972,19235
7.51232,21065
7.51493,21475
7.51753,28472
7.52015,45881
7.52275,75993
7.52537,120008
7.52797,159856
7.53057,175811
7.53318,158678
7.53578,106581
7.53840,74099
7.54100,51544
7.54360,39727
7.54622,33692
7.54882,30888
7.55143,28737
7.55403,31298
7.55663,28632
7.55925,29478
7.56185,29382
7.56447,25853
7.56707,26703
7.56967,25879
7.57228,26485
7.57488,25182
7.57750,27610
7.58010,28487
7.58270,29990
7.58532,28261
7.58792,28105
7.59053,26137
7.59313,26225
7.59573,26328
7.59835,23267
7.60095,24722
7.60357,22877
7.60617,24155
7.60878,23845
7.61138,24040
7.61398,24039
7.61660,23030
7.61920,22690
7.62182,21752
7.62442,24415
7.62702,23761
7.62963,23723
7.63223,22570
7.63485,25297
7.63745,23981
7.64005,23245
7.64267,23040
7.64527,22984
7.64788,23385
7.65048,22950
7.65308,21126
7.65570,22880
7.65830,24269
7.66092,23212
7.66352,24428
7.66612,23390
7.66873,22822
7.67133,27264
7.67395,24018
7.67655,25918
7.67915,25525
7.68177,26317
7.68437,23796
7.68698,22760
7.68958,22392
7.69220,23210
7.69480,23923
7.69740,25059
7.70002,22492
7.70262,22217
7.70523,24687
7.70783,23792
7.71043,22588
7.71305,22722
7.71565,25615
7.71827,23326
7.72087,22896
7.72347,22865
7.72608,22743
7.72868,24154
7.73130,22905
7.73390,24024
7.73650,25787
7.73912,25567
7.74172,24555
7.74433,25494
7.74693,24479
7.74953,22800
7.75215,21830
7.75475,20591
7.75737,22065
7.75997,23591
7.76257,22218
7.76518,25563
7.76778,24647
7.77040,24645
7.77300,25203
7.77562,23956
7.77822,24137
7.78082,26386
7.78343,24636
7.78603,21906
7.78865,22098
7.79125,22786
7.79385,24932
7.79647,24098
7.79907,23512
7.80168,24529
7.80428,24645
7.80688,25889
7.80950,23470
7.81210,24405
7.81472,25157
7.81732,26357
7.81992,27057
7.82253,25694
7.82513,30852
7.82775,30270
7.83035,33755
7.83295,31566
7.83557,29032
7.83817,27542
7.84078,25511
7.84338,25002
7.84598,26880
7.84860,25889
7.85120,26790
7.85382,24649
7.85642,26090
7.85903,26785
7.86163,23850
7.86423,25564
7.86685,26218
7.86945,25805
7.87207,27367
7.87467,24474
7.87727,26339
7.87988,27189
7.88248,26842
7.88510,25711
7.88770,26906
7.89030,24112
7.89292,24446
7.89552,25624
7.89813,25940
7.90073,28167
7.90333,28705
7.90595,26496
7.90855,30868
7.91117,30391
7.91377,29100
7.91637,28558
7.91898,27886
7.92158,26537
7.92420,28135
7.92680,27820
7.92940,26398
7.93202,25928
7.93462,27538
7.93723,26936
7.93983,26338
7.94245,27963
7.94505,27478
7.94765,28072
7.95027,25744
7.95287,25881
7.95548,28375
7.95808,29333
7.96068,27153
7.96330,28137
7.96590,27504
7.96852,26319
7.97112,28233
7.97372,28241
7.97633,25697
7.97893,28752
7.98155,27769
7.98415,25208
7.98675,27666
7.98937,25412
7.99197,27905
7.99458,27380
7.99718,28299
7.99978,26652
8.00240,30019
8.00500,27916
8.00762,27842
8.01022,28848
8.01282,27992
8.01543,26945
8.01803,29629
8.02065,26641
8.02325,28449
8.02587,26288
8.02847,30642
8.03107,28432
8.03368,29324
8.03628,30586
8.03890,29517
8.04150,29122
8.04410,28642
8.04672,27400
8.04932,29293
8.05193,30457
8.05453,34341
8.05713,52250
8.05975,144983
8.06235,441806
8.06497,1332690
8.06757,3646038
8.07017,7940787
8.07278,1.287015E+07
8.07538,1.695273E+07
8.07800,1.8101E+07
8.08060,1.562907E+07
8.08320,9942444
8.08582,4928681
8.08842,2510654
8.09103,1533528
8.09363,1074954
8.09623,804098
8.09885,646094
8.10145,538305
8.10407,449408
8.10667,375776
8.10928,337014
8.11188,307554
8.11448,264880
8.11710,230727
8.11970,223189
8.12232,205716
8.12492,177795
8.12752,170238
8.13013,157939
8.13273,143350
8.13535,141670
8.13795,124656
8.14055,117277
8.14317,106451
8.14577,108800
8.14838,100716
8.15098,96370
8.15358,94492
8.15620,87643
8.15880,85120
8.16142,83594
8.16402,79070
8.16662,79192
8.16923,73686
8.17183,68995
8.17445,75578
8.17705,77336
8.17965,77379
8.18227,77073
8.18487,68900
8.18748,68619
8.19008,62179
8.19270,63607
8.19530,63938
8.19790,62302
8.20052,55177
8.20312,57395
8.20573,59528
8.20833,56740
8.21093,52696
8.21355,54073
8.21615,54789
8.21877,55200
8.22137,50078
8.22397,50452
8.22658,53115
8.22918,50621
8.23180,47606
8.23440,49263
8.23700,48322
8.23962,49975
8.24222,47057
8.24483,48881
8.24743,46111
8.25003,48500
8.25265,47907
8.25525,46811
8.25787,44978
8.26047,46095
8.26307,49308
8.26568,44532
8.26828,44469
8.27090,46554
8.27350,43574
8.27612,44035
8.27872,43449
8.28132,42352
8.28393,42840
8.28653,43600
8.28915,45439
8.29175,43920
8.29435,47944
8.29697,45691
8.29957,45336
8.30218,46651
8.30478,47709
8.30738,44325
8.31000,46856
8.31260,44559
8.31522,45852
8.31782,46249
8.32042,46101
8.32303,42899
8.32563,42701
8.32825,43659
8.33085,43573
8.33345,45288
8.33607,43773
8.33867,46860
8.34128,41558
8.34388,43015
8.34648,45919
8.34910,44219
8.35170,45223
8.35432,41283
8.35692,43917
8.35953,45437
8.36213,44694
8.36473,44526
8.36735,44476
8.36995,46382
8.37257,44534
8.37517,46669
8.37777,47054
8.38038,46454
8.38298,43582
8.38560,45336
8.38820,46516
8.39080,44846
8.39342,46141
8.39602,46495
8.39863,45829
8.40123,45792
8.40383,44242
8.40645,47546
8.40905,46966
8.41167,48803
8.41427,46051
8.41687,46335
8.41948,48217
8.42208,46946
8.42470,47328
8.42730,46924
8.42990,51548
8.43252,44469
8.43512,49166
8.43773,48560
8.44033,49159
8.44295,45922
8.44555,49578
8.44815,49392
8.45077,46724
8.45337,46389
8.45598,47675
8.45858,47869
8.46118,52311
8.46380,49836
8.46640,50324
8.46902,52044
8.47162,52137
8.47422,55344
8.47683,55464
8.47943,55225
8.48205,53923
8.48465,56044
8.48725,51036
8.48987,51827
8.49247,49559
8.49508,53135
8.49768,54446
8.50028,55256
8.50290,55366
8.50550,59120
8.50812,64287
8.51072,68052
8.51332,70273
8.51593,64765
8.51853,58983
8.52115,60035
8.52375,55099
8.52637,58363
8.52897,53959
8.53157,57978
8.53418,58225
8.53678,56731
8.53940,56567
8.54200,61008
8.54460,58376
8.54722,57146
8.54982,56634
8.55243,55499
8.55503,59026
8.55763,57742
8.56025,53640
8.56285,56800
8.56547,56334
8.56807,60570
8.57067,58714
8.57328,57311
8.57588,58400
8.57850,54239
8.58110,62901
8.58370,60835
8.58632,59013
8.58892,59315
8.59153,63898
8.59413,63390
8.59673,63516
8.59935,63109
8.60195,61973
8.60457,61411
8.60717,60709
8.60978,64887
8.61238,64890
8.61498,67256
8.61760,66069
8.62020,63250
8.62282,67475
8.62542,63129
8.62802,67543
8.63063,66789
8.63323,68993
8.63585,65270
8.63845,66243
8.64105,69001
8.64367,63280
8.64627,68882
8.64888,66102
8.65148,62151
8.65408,69499
8.65670,67908
8.65930,69380
8.66192,72713
8.66452,69799
8.66712,68009
8.66973,70449
8.67233,69782
8.67495,71689
8.67755,68727
8.68015,72278
8.68277,75216
8.68537,71992
8.68798,73728
8.69058,76062
8.69320,79017
8.69580,78840
8.69840,76628
8.70102,75813
8.70362,77329
8.70623,81131
8.70883,80750
8.71143,83430
8.71405,86093
8.71665,86910
8.71927,85518
8.72187,85980
8.72447,84147
8.72708,84176
8.72968,88445
8.73230,82785
8.73490,84130
8.73750,87685
8.74012,85926
8.74272,84598
8.74533,84655
8.74793,83137
8.75053,85840
8.75315,82434
8.75575,82272
8.75837,83082
8.76097,85222
8.76357,86261
8.76618,85560
8.76878,88672
8.77140,83651
8.77400,83610
8.77662,82100
8.77922,88826
8.78182,86207
8.78443,83124
8.78703,88530
8.78965,88633
8.79225,85139
8.79485,88560
8.79747,84845
8.80007,89395
8.80268,89567
8.80528,92158
8.80788,87729
8.81050,90805
8.81310,90507
8.81572,90094
8.81832,91596
8.82092,92733
8.82353,90222
8.82613,88864
8.82875,93636
8.83135,93753
8.83395,90594
8.83657,92507
8.83917,94662
8.84178,95998
8.84438,93459
8.84698,96008
8.84960,89096
8.85220,97426
8.85482,96384
8.85742,96647
8.86003,91391
8.86263,94765
8.86523,93492
8.86785,99036
8.87045,93108
8.87307,98280
8.87567,93713
8.87827,95827
8.88088,97609
8.88348,99490
8.88610,94692
8.88870,95386
8.89130,96006
8.89392,96557
8.89652,94568
8.89913,99173
8.90173,98860
8.90433,102826
8.90695,98240
8.90955,97114
8.91217,101847
8.91477,104901
8.91737,98562
8.91998,99061
8.92258,100356
8.92520,98655
8.92780,101728
8.93040,99729
8.93302,104407
8.93562,103961
8.93823,104688
8.94083,106471
8.94345,101657
8.94605,101971
8.94865,104630
8.95127,102501
8.95387,104069
8.95648,103641
8.95908,103216
8.96168,98519
8.96430,103153
8.96690,105022
8.96952,101700
8.97212,98870
8.97472,103082
8.97733,100529
8.97993,106113
8.98255,102694
8.98515,105625
8.98775,105799
8.99037,106232
8.99297,107833
8.99558,105955
8.99818,106343
9.00078,104474
9.00340,104068
9.00600,103251
9.00862,104055
9.01122,103171
9.01382,107253
9.01643,107249
9.01903,107502
9.02165,106993
9.02425,107601
9.02687,107076
9.02947,107272
9.03207,111622
9.03468,105297
9.03728,107487
9.03990,105830
9.04250,105858
9.04510,108902
9.04772,108323
9.05032,106461
9.05293,103275
9.05553,105243
9.05813,108961
9.06075,110366
9.06335,106438
9.06597,103842
9.06857,111393
9.07117,112325
9.07378,106925
9.07638,106886
9.07900,106715
9.08160,109377
9.08420,109362
9.08682,106458
9.08942,107425
9.09203,106459
9.09463,109565
9.09723,111363
9.09985,107920
9.10245,107050
9.10507,111029
9.10767,104961
9.11028,105981
9.11288,112354
9.11548,103736
9.11810,112105
9.12070,112442
9.12332,108411
9.12592,110740
9.12852,119172
9.13113,113680
9.13373,109716
9.13635,109465
9.13895,111244
9.14155,109054
9.14417,109850
9.14677,108115
9.14938,112446
9.15198,109235
9.15458,108278
9.15720,105308
9.15980,108165
9.16242,110280
9.16502,108108
9.16762,106944
9.17023,109915
9.17283,104707
9.17545,108550
9.17805,114149
9.18065,110668
9.18327,111883
9.18587,111049
9.18848,113147
9.19108,114008
9.19370,116812
9.19630,111390
9.19890,111397
9.20152,117252
9.20412,120301
9.20673,112046
9.20933,109380
9.21193,110114
9.21455,109283
9.21715,115085
9.21977,112218
9.22237,113082
9.22497,107004
9.22758,113595
9.23018,112928
9.23280,109813
9.23540,112121
9.23800,110588
9.24062,108853
9.24322,113050
9.24583,111625
9.24843,107601
9.25103,105925
9.25365,108648
9.25625,109624
9.25887,110554
9.26147,110201
9.26407,110117
9.26668,113916
9.26928,107300
9.27190,111031
9.27450,111620
9.27712,108842
9.27972,112002
9.28232,107218
9.28493,111782
9.28753,111436
9.29015,107324
9.29275,113076
9.29535,104737
9.29797,111977
9.30057,109431
9.30318,106214
9.30578,113735
9.30838,109882
9.31100,110707
9.31360,114517
9.31622,109371
9.31882,110190
9.32142,110304
9.32403,109977
9.32663,109245
9.32925,107122
9.33185,106561
9.33445,111510
9.33707,108900
9.33967,109514
9.34228,107388
9.34488,111525
9.34748,111288
9.35010,112431
9.35270,114751
9.35532,106477
9.35792,112752
9.36053,112969
9.36313,109312
9.36573,114749
9.36835,114528
9.37095,114764
9.37357,114281
9.37617,112668
9.37877,111040
9.38138,111045
9.38398,109663
9.38660,112838
9.38920,110202
9.39180,111774
9.39442,104143
9.39702,111159
9.39963,115423
9.40223,108294
9.40483,111163
9.40745,110185
9.41005,110525
9.41267,111638
9.41527,110406
9.41787,113973
9.42048,107172
9.42308,111654
9.42570,109453
9.42830,112284
9.43090,110253
9.43352,111577
9.43612,113048
9.43873,108252
9.44133,108136
9.44395,110833
9.44655,112590
9.44915,112492
9.45177,112815
9.45437,110032
9.45698,110626
9.45958,111468
9.46218,107090
9.46480,109563
9.46740,112999
9.47002,113655
9.47262,112405
9.47522,114730
9.47783,112248
9.48043,112116
9.48305,112373
9.48565,115437
9.48825,109307
9.49087,115306
9.49347,109684
9.49608,112599
9.49868,107359
9.50128,110611
9.50390,108792
9.50650,111734
9.50912,112526
9.51172,111722
9.51432,107435
9.51693,112787
9.51953,112204
9.52215,110630
9.52475,108831
9.52737,110261
9.52997,108337
9.53257,113770
9.53518,111612
9.53778,112054
9.54040,112604
9.54300,112209
9.54560,107579
9.54822,109410
9.55082,111171
9.55343,109350
9.55603,109820
9.55863,111786
9.56125,110179
9.56385,108524
9.56647,112423
9.56907,111500
9.57167,113881
9.57428,111607
9.57688,109029
9.57950,110548
9.58210,107859
9.58470,114480
9.58732,107004
9.58992,110784
9.59253,113096
9.59513,108110
9.59773,111279
9.60035,109477
9.60295,108722
9.60557,107905
9.60817,108206
9.61078,106198
9.61338,111326
9.61598,111480
9.61860,109502
9.62120,109375
9.62382,109534
9.62642,107333
9.62902,110193
9.63163,118536
9.63423,112011
9.63685,107025
9.63945,109369
9.64205,107678
9.64467,110023
9.64727,110731
9.64988,107643
9.65248,109716
9.65508,113551
9.65770,110359
9.66030,107884
9.66292,111247
9.66552,108875
9.66812,113291
9.67073,113859
9.67333,113977
9.67595,109526
9.67855,113197
9.68115,111702
9.68377,109044
9.68637,112463
9.68898,111224
9.69158,112980
9.69420,111023
9.69680,115105
9.69940,110477
9.70202,112966
9.70462,108907
9.70723,111447
9.70983,108912
9.71243,110510
9.71505,109554
9.71765,108263
9.72027,108605
9.72287,110740
9.72547,106553
9.72808,107058
9.73068,107777
9.73330,107794
9.73590,112714
9.73850,109518
9.74112,112018
9.74372,107045
9.74633,106502
9.74893,107520
9.75153,109145
9.75415,107323
9.75675,116782
9.75937,106006
9.76197,109354
9.76457,110629
9.76718,113822
9.76978,111680
9.77240,108906
9.77500,111133
9.77762,109204
9.78022,109792
9.78282,105787
9.78543,109136
9.78803,106443
9.79065,112948
9.79325,111281
9.79585,109031
9.79847,108194
9.80107,109923
9.80368,107729
9.80628,110287
9.80888,111153
9.81150,110249
9.81410,112819
9.81672,111323
9.81932,109631
9.82192,107694
9.82453,111211
9.82713,109766
9.82975,109738
9.83235,108103
9.83495,107549
9.83757,108035
9.84017,109995
9.84278,111865
9.84538,111244
9.84798,107788
9.85060,110325
9.85320,107447
9.85582,109018
9.85842,113465
9.86103,106538
9.86363,113361
9.86623,111565
9.86885,112142
9.87145,111819
9.87407,109798
9.87667,110328
9.87927,110598
9.88188,108640
9.88448,108754
9.88710,109997
9.88970,110931
9.89230,111409
9.89492,109046
9.89752,111659
9.90013,115839
9.90273,110888
9.90533,107766
9.90795,110259
9.91055,113246
9.91317,110203
9.91577,107119
9.91837,111796
9.92098,109522
9.92358,106527
9.92620,110576
9.92880,111465
9.93140,113832
9.93402,111980
9.93662,106530
9.93923,111105
9.94183,110298
9.94445,109693
9.94705,109430
9.94965,108656
9.95227,113004
9.95487,109462
9.95748,109563
9.96008,111653
9.96268,109786
9.96530,106573
9.96790,109593
9.97052,106648
9.97312,110789
9.97572,112259
9.97833,109509
9.98093,108371
9.98355,108687
9.98615,112235
9.98875,110974
9.99137,115149
9.99397,108283
9.99658,107774
9.99918,113672
10.00178,104911
10.00440,110674
10.00700,110011
10.00962,110074
10.01222,109693
10.01482,107305
10.01743,110022
10.02003,109978
10.02265,112618
10.02525,112182
10.02787,107045
10.03047,112892
10.03307,113220
10.03568,109789
10.03828,105749
10.04090,108831
10.04350,108720
10.04610,112560
10.04872,113231
10.05132,111293
10.05393,109882
10.05653,111316
10.05913,106677
10.06175,112560
10.06435,113510
10.06697,114260
10.06957,110342
10.07217,111609
10.07478,111469
10.07738,112359
10.08000,117799
10.08260,112082
10.08520,114025
10.08782,114777
10.09042,111951
10.09303,109793
10.09563,109674
10.09823,111022
10.10085,109382
10.10345,109445
10.10607,111191
10.10867,113813
10.11128,112431
10.11388,110916
10.11648,110439
10.11910,114284
10.12170,107504
10.12432,112587
10.12692,113316
10.12952,108152
10.13213,113086
10.13473,110874
10.13735,115332
10.13995,106823
10.14255,111379
10.14517,109831
10.14777,112515
10.15038,109939
10.15298,114233
10.15558,109215
10.15820,114941
10.16080,110863
10.16342,112159
10.16602,110102
10.16862,109925
10.17123,110772
10.17383,110262
10.17645,109661
10.17905,105973
10.18165,105936
10.18427,114884
10.18687,111458
10.18948,108766
10.19208,108928
10.19470,111739
10.19730,108624
10.19990,106671
10.20252,109561
10.20512,110748
10.20773,108804
10.21033,111619
10.21293,112789
10.21555,110575
10.21815,106748
10.22077,111033
10.22337,110899
10.22597,110031
10.22858,105301
10.23118,111057
10.23380,107751
10.23640,104169
10.23900,109236
10.24162,112824
10.24422,108773
10.24683,108684
10.24943,107402
10.25203,108639
10.25465,107219
10.25725,107838
10.25987,109387
10.26247,112360
10.26507,111364
10.26768,111230
10.27028,105249
10.27290,108831
10.27550,107867
10.27812,106587
10.28072,106750
10.28332,111520
10.28593,110682
10.28853,109852
10.29115,112252
10.29375,109838
10.29635,110985
10.29897,109243
10.30157,103411
10.30418,108250
10.30678,105403
10.30938,113691
10.31200,106325
10.31460,111729
10.31722,112616
10.31982,109139
10.32242,108665
10.32503,109105
10.32763,110545
10.33025,109278
10.33285,111761
10.33545,108737
10.33807,111961
10.34067,110418
10.34328,107318
10.34588,112100
10.34848,109556
10.35110,110254
10.35370,107865
10.35632,114880
10.35892,110559
10.36153,109258
10.36413,113096
10.36673,105329
10.36935,109618
10.37195,109494
10.37457,110209
10.37717,109786
10.37977,109009
10.38238,109856
10.38498,105378
10.38760,114277
10.39020,108336
10.39280,108900
10.39542,108466
10.39802,109056
10.40063,106553
10.40323,111795
10.40583,110154
10.40845,111277
10.41105,108612
10.41367,112612
10.41627,115381
10.41887,111900
10.42148,111190
10.42408,108575
10.42670,105487
10.42930,109573
10.43190,109321
10.43452,110470
10.43712,114588
10.43973,114571
10.44233,112291
10.44495,109349
10.44755,112715
10.45015,115745
10.45277,113394
10.45537,116993
10.45798,111833
10.46058,117903
10.46318,116420
10.46580,118458
10.46840,115763
10.47102,119357
10.47362,118028
10.47622,120863
10.47883,121085
10.48143,119697
10.48405,116748
10.48665,117971
10.48925,119113
10.49187,118818
10.49447,121067
10.49708,118399
10.49968,120147
10.50228,116896
10.50490,117884
10.50750,122242
10.51012,117673
10.51272,117647
10.51532,113663
10.51793,117729
10.52053,114951
10.52315,118334
10.52575,116320
10.52837,114560
10.53097,115235
10.53357,113622
10.53618,114302
10.53878,118073
10.54140,120613
10.54400,115939
10.54660,113520
10.54922,109815
10.55182,114453
10.55443,115308
10.55703,113618
10.55963,113978
10.56225,116796
10.56485,114556
10.56747,112552
10.57007,110924
10.57267,115040
10.57528,112913
10.57788,114311
10.58050,112953
10.58310,114905
10.58570,112212
10.58832,111389
10.59092,112667
10.59353,112301
10.59613,110946
10.59873,114087
10.60135,108527
10.60395,110945
10.60657,114888
10.60917,115017
10.61178,111641
10.61438,112676
10.61698,112779
10.61960,105608
10.62220,111782
10.62482,113611
10.62742,112858
10.63002,114211
10.63263,111740
10.63523,111433
10.63785,114178
10.64045,112787
10.64305,110379
10.64567,114427
10.64827,114157
10.65088,112915
10.65348,114695
10.65608,111955
10.65870,112242
10.66130,108819
10.66392,109821
